#L=1 M=0
#R     Re(V)   Im(V)

0.08046609183  -0.00491386745  0
0.2612261349  -0.01594760372  0
0.5220750502  -0.03184008222  0
0.8347210423  -0.05080017656  0
1.165278958  -0.07068058956  0
1.47792495  -0.089261753  0
1.738773865  -0.1045503871  0
1.919533908  -0.1150074462  0
2  -0.1196218182  0
2.080466092  -0.124209319  0
2.261226135  -0.1344099057  0
2.52207505  -0.1488483309  0
2.834721042  -0.1656566251  0
3.165278958  -0.1827580491  0
3.47792495  -0.1982303757  0
3.738773865  -0.2105854901  0
3.919533908  -0.2188496443  0
4  -0.2224523979  0
4.080466092  -0.215242567  0
4.261226135  -0.2003348977  0
4.52207505  -0.1814825095  0
4.834721042  -0.1622020167  0
5.165278958  -0.1449074528  0
5.47792495  -0.1308761563  0
5.738773865  -0.1205918603  0
5.919533908  -0.1141173999  0
6  -0.1113907142  0
6.080466092  -0.1087539607  0
6.261226135  -0.103139346  0
6.52207505  -0.09572520186  0
6.834721042  -0.08778306959  0
7.165278958  -0.08035359951  0
7.47792495  -0.07411505918  0
7.738773865  -0.06942134018  0
7.919533908  -0.06641265855  0
8  -0.06513284267  0
8.080466092  -0.06388792957  0
8.261226135  -0.06121260067  0
8.52207505  -0.05762693905  0
8.834721042  -0.05371506321  0
9.165278958  -0.04998375994  0
9.47792495  -0.04679165664  0
9.738773865  -0.04435115192  0
9.919533908  -0.04276783133  0
10  -0.04208959238  0
10.08046609  -0.04142704338  0
10.26122613  -0.03999353244  0
10.52207505  -0.0380504282  0
10.83472104  -0.03589992894  0
11.16527896  -0.0338163409  0
11.47792495  -0.03200656142  0
11.73877387  -0.03060458678  0
11.91953391  -0.02968600737  0
12  -0.02929025732  0
12.08046609  -0.02890231745  0
12.26122613  -0.0280582953  0
12.52207505  -0.02690366778  0
12.83472104  -0.02561087416  0
13.16527896  -0.02434243561  0
13.47792495  -0.02322723707  0
13.73877387  -0.02235426695  0
13.91953391  -0.02177781669  0
14  -0.02152834173  0
14.08046609  -0.02128312136  0
14.26122613  -0.02074727935  0
14.52207505  -0.02000894217  0
14.83472104  -0.01917471495  0
15.16527896  -0.01834813236  0
15.47792495  -0.01761451858  0
15.73877387  -0.01703557484  0
15.91953391  -0.01665095787  0
16  -0.01648391945  0
16.08046609  -0.01631938088  0
16.26122613  -0.01595862092  0
16.52207505  -0.01545873461  0
16.83472104  -0.01488992061  0
17.16527896  -0.01432199063  0
17.47792495  -0.01381420855  0
17.73877387  -0.0134109321  0
17.91953391  -0.0131417431  0
18  -0.01302451243  0
18.08046609  -0.01290884325  0
18.26122613  -0.01265455492  0
18.52207505  -0.01230063892  0
18.83472104  -0.01189566585  0
19.16527896  -0.01148886174  0
19.47792495  -0.01112300225  0
19.73877387  -0.01083096439  0
19.91953391  -0.01063528583  0
20  -0.01054988038  0
20.08046609  -0.01046549954  0
20.26122613  -0.0102795978  0
20.52207505  -0.01001993864  0
20.83472104  -0.009721477095  0
21.16527896  -0.009420190147  0
21.47792495  -0.009147934364  0
21.73877387  -0.008929715093  0
21.91953391  -0.008783044209  0
22  -0.008718912917  0
22.08046609  -0.00865548147  0
22.26122613  -0.008515488098  0
22.52207505  -0.008319379046  0
22.83472104  -0.008093125947  0
23.16527896  -0.007863803547  0
23.47792495  -0.007655759943  0
23.73877387  -0.007488436686  0
23.91953391  -0.007375684046  0
24  -0.007326309257  0
24.08046609  -0.007277428605  0
24.26122613  -0.007169390566  0
24.52207505  -0.007017675754  0
24.83472104  -0.006842095966  0
25.16527896  -0.006663528143  0
25.47792495  -0.006500991926  0
25.73877387  -0.006369891374  0
25.91953391  -0.006281355302  0
26  -0.006242535765  0
26.08046609  -0.006204074984  0
26.26122613  -0.006118961724  0
26.52207505  -0.005999191651  0
26.83472104  -0.005860215215  0
27.16527896  -0.00571846408  0
27.47792495  -0.005589074129  0
27.73877387  -0.005484451695  0
27.91953391  -0.005413665377  0
28  -0.005382594623  0
28.08046609  -0.005351790591  0
28.26122613  -0.005283548954  0
28.52207505  -0.005187349376  0
28.83472104  -0.005075469561  0
29.16527896  -0.004961071276  0
29.47792495  -0.00485639405  0
29.73877387  -0.004771573511  0
29.91953391  -0.004714092376  0
30  -0.004688837984  0
30.08046609  -0.00466378599  0
30.26122613  -0.004608235807  0
30.52207505  -0.004529806225  0
30.83472104  -0.004438412766  0
31.16527896  -0.004344759074  0
31.47792495  -0.004258881388  0
31.73877387  -0.004189164803  0
31.91953391  -0.004141852739  0
32  -0.00412104901  0
32.08046609  -0.004100401627  0
32.26122613  -0.004054581153  0
32.52207505  -0.003989801054  0
32.83472104  -0.003914182529  0
33.16527896  -0.003836546152  0
33.47792495  -0.003765222742  0
33.73877387  -0.003707226708  0
33.91953391  -0.003667819745  0
34  -0.0036504794  0
34.08046609  -0.003633261734  0
34.26122613  -0.003595025153  0
34.52207505  -0.00354090236  0
34.83472104  -0.003477627504  0
35.16527896  -0.003412554549  0
35.47792495  -0.003352673909  0
35.73877387  -0.003303911754  0
35.91953391  -0.003270742474  0
36  -0.003256137489  0
36.08046609  -0.00324163011  0
36.26122613  -0.003209391999  0
36.52207505  -0.003163711309  0
36.83472104  -0.003110233291  0
37.16527896  -0.003055152845  0
37.47792495  -0.003004392448  0
37.73877387  -0.0029630035  0
37.91953391  -0.002934821926  0
38  -0.002922405946  0
38.08046609  -0.00291006859  0
38.26122613  -0.002882637082  0
38.52207505  -0.002843730199  0
38.83472104  -0.002798126576  0
39.16527896  -0.0027510931  0
39.47792495  -0.002707691003  0
39.73877387  -0.002672260611  0
39.91953391  -0.002648114822  0
40  -0.002637471366  0
40.08046609  -0.002626891949  0
40.26122613  -0.002603357089  0
40.52207505  -0.002569948278  0
40.83472104  -0.002530745946  0
41.16527896  -0.002490265263  0
41.47792495  -0.002452865265  0
41.73877387  -0.002422302415  0
41.91953391  -0.002401457171  0
42  -0.002392264278  0
42.08046609  -0.002383124069  0
42.26122613  -0.002362781434  0
42.52207505  -0.002333881689  0
42.83472104  -0.002299936525  0
43.16527896  -0.002264845766  0
43.47792495  -0.00223239026  0
43.73877387  -0.00220584264  0
43.91953391  -0.00218772279  0
44  -0.002179728402  0
44.08046609  -0.002171777754  0
44.26122613  -0.00215407517  0
44.52207505  -0.002128908232  0
44.83472104  -0.00209932072  0
45.16527896  -0.002068703943  0
45.47792495  -0.002040358374  0
45.73877387  -0.002017152346  0
45.91953391  -0.002001302757  0
46  -0.001994307271  0
46.08046609  -0.001987348401  0
46.26122613  -0.001971848104  0
46.52207505  -0.001949797822  0
46.83472104  -0.001923852892  0
47.16527896  -0.001896980739  0
47.47792495  -0.001872079454  0
47.73877387  -0.001851676929  0
47.91953391  -0.001837733642  0
48  -0.001831577338  0
48.08046609  -0.001825451917  0
48.26122613  -0.001811803245  0
48.52207505  -0.001792375528  0
48.83472104  -0.001769498967  0
49.16527896  -0.001745784852  0
49.47792495  -0.001723791683  0
49.73877387  -0.001705758664  0
49.91953391  -0.001693427829  0
50  -0.001687981674  0
50.08046609  -0.00168256175  0
50.26122613  -0.001670481144  0
50.52207505  -0.001653276059  0
50.83472104  -0.001633002489  0
51.16527896  -0.001611970328  0
51.47792495  -0.001592449509  0
51.73877387  -0.001576432832  0
51.91953391  -0.001565475106  0
52  -0.001560633944  0
52.08046609  -0.001555815205  0
52.26122613  -0.001545071375  0
52.52207505  -0.001529762407  0
52.83472104  -0.001511711436  0
53.16527896  -0.001492971585  0
53.47792495  -0.001475566005  0
53.73877387  -0.001461275927  0
53.91953391  -0.001451494776  0
54  -0.001447172217  0
54.08046609  -0.001442868939  0
54.26122613  -0.001433271712  0
54.52207505  -0.001419590171  0
54.83472104  -0.00140344843  0
55.16527896  -0.001386679511  0
55.47792495  -0.001371094279  0
55.73877387  -0.001358291285  0
55.91953391  -0.001349524117  0
56  -0.001345648656  0
56.08046609  -0.001341789865  0
56.26122613  -0.001333181721  0
56.52207505  -0.00132090487  0
56.83472104  -0.00130641233  0
57.16527896  -0.001291347368  0
57.47792495  -0.00127733724  0
57.73877387  -0.001265821949  0
57.91953391  -0.001257933316  0
58  -0.001254445358  0
58.08046609  -0.001250971888  0
58.26122613  -0.001243221452  0
58.52207505  -0.001232163395  0
58.83472104  -0.001219102828  0
59.16527896  -0.001205518565  0
59.47792495  -0.001192878247  0
59.73877387  -0.001182483602  0
59.91953391  -0.001175359936  0
60  -0.001172209496  0
60.08046609  -0.001169071706  0
60.26122613  -0.001162068711  0
60.52207505  -0.001152073313  0
60.83472104  -0.001140262112  0
61.16527896  -0.001127970689  0
61.47792495  -0.001116527271  0
61.73877387  -0.001107112453  0
61.91953391  -0.00110065796  0
62  -0.001097802858  0
62.08046609  -0.00109495885  0
62.26122613  -0.001088610196  0
62.52207505  -0.001079545544  0
62.83472104  -0.001068829307  0
63.16527896  -0.001057671737  0
63.47792495  -0.001047278754  0
63.73877387  -0.001038724383  0
63.91953391  -0.001032857808  0
64  -0.001030262252  0
64.08046609  -0.001027676468  0
64.26122613  -0.001021903109  0
64.52207505  -0.001013657141  0
64.83472104  -0.001003904597  0
65.16527896  -0.0009937455997  0
65.47792495  -0.0009842783226  0
65.73877387  -0.000976482663  0
65.91953391  -0.0009711347174  0
66  -0.0009687681786  0
66.08046609  -0.0009664102797  0
66.26122613  -0.0009611447542  0
66.52207505  -0.0009536217774  0
66.83472104  -0.0009447207549  0
67.16527896  -0.0009354446389  0
67.47792495  -0.0009267963148  0
67.73877387  -0.0009196722313  0
67.91953391  -0.0009147835412  0
68  -0.0009126198499  0
68.08046609  -0.000910463826  0
68.26122613  -0.0009056482788  0
68.52207505  -0.0008987661837  0
68.83472104  -0.0008906203671  0
69.16527896  -0.0008821277215  0
69.47792495  -0.0008742065531  0
69.73877387  -0.0008676790692  0
69.91953391  -0.0008631985197  0
70  -0.00086121514  0
70.08046609  -0.0008592385883  0
70.26122613  -0.0008548231739  0
70.52207505  -0.0008485111839  0
70.83472104  -0.0008410374995  0
71.16527896  -0.0008332425204  0
71.47792495  -0.0008259692204  0
71.73877387  -0.0008199735375  0
71.91953391  -0.0008158569316  0
72  -0.0008140343723  0
72.08046609  -0.0008122179133  0
72.26122613  -0.0008081595013  0
72.52207505  -0.0008023563466  0
72.83472104  -0.0007954828364  0
73.16527896  -0.0007883111521  0
73.47792495  -0.0007816169517  0
73.73877387  -0.000776096835  0
73.91953391  -0.0007723058  0
74  -0.000770627134  0
74.08046609  -0.0007689539351  0
74.26122613  -0.0007652150532  0
74.52207505  -0.0007598674786  0
74.83472104  -0.0007535315624  0
75.16527896  -0.0007469184528  0
75.47792495  -0.0007407434708  0
75.73877387  -0.0007356499266  0
75.91953391  -0.0007321510166  0
76  -0.0007306014865  0
76.08046609  -0.0007290568704  0
76.26122613  -0.0007256048365  0
76.52207505  -0.0007206663756  0
76.83472104  -0.0007148134215  0
77.16527896  -0.0007087023535  0
77.47792495  -0.0007029942529  0
77.73877387  -0.0006982844376  0
77.91953391  -0.0006950483936  0
78  -0.0006936150864  0
78.08046609  -0.0006921862083  0
78.26122613  -0.0006889924144  0
78.52207505  -0.0006844223771  0
78.83472104  -0.0006790045205  0
79.16527896  -0.0006733459358  0
79.47792495  -0.0006680588113  0
79.73877387  -0.0006636951278  0
79.91953391  -0.0006606962643  0
80  -0.0006593678415  0
80.08046609  -0.0006580434213  0
80.26122613  -0.0006550827385  0
80.52207505  -0.0006508453702  0
80.83472104  -0.0006458205323  0
81.16527896  -0.0006405708399  0
81.47792495  -0.0006356642921  0
81.73877387  -0.0006316136376  0
81.91953391  -0.0006288293311  0
82  -0.000627595804  0
82.08046609  -0.0006263659029  0
82.26122613  -0.0006236161862  0
82.52207505  -0.0006196799665  0
82.83472104  -0.0006150110346  0
83.16527896  -0.000610131769  0
83.47792495  -0.0006055701309  0
83.73877387  -0.000601803267  0
83.91953391  -0.0005992135284  0
84  -0.0005980660694  0
84.08046609  -0.0005969219033  0
84.26122613  -0.0005943635761  0
84.52207505  -0.0005907006311  0
84.83472104  -0.0005863547718  0
85.16527896  -0.0005818118862  0
85.47792495  -0.0005775635732  0
85.73877387  -0.0005740545971  0
85.91953391  -0.000571641712  0
86  -0.0005705724967  0
86.08046609  -0.0005695062785  0
86.26122613  -0.0005671219832  0
86.52207505  -0.0005637075908  0
86.83472104  -0.0005596556714  0
87.16527896  -0.0005554189426  0
87.47792495  -0.000551455904  0
87.73877387  -0.0005481818021  0
87.91953391  -0.0005459300271  0
88  -0.0005449321005  0
88.08046609  -0.0005439369075  0
88.26122613  -0.0005417112105  0
88.52207505  -0.0005385233821  0
88.83472104  -0.000534739481  0
89.16527896  -0.0005307820052  0
89.47792495  -0.0005270792607  0
89.73877387  -0.0005240195302  0
89.91953391  -0.0005219148354  0
90  -0.0005209819983  0
90.08046609  -0.0005200516598  0
90.26122613  -0.000517970801  0
90.52207505  -0.000514989927  0
90.83472104  -0.000511450918  0
91.16527896  -0.000507748683  0
91.47792495  -0.0005042839276  0
91.73877387  -0.0005014202551  0
91.91953391  -0.0004994501053  0
92  -0.0004985768178  0
92.08046609  -0.0004977058188  0
92.26122613  -0.0004957574988  0
92.52207505  -0.0004929660458  0
92.83472104  -0.0004896512444  0
93.16527896  -0.0004861827644  0
93.47792495  -0.0004829360322  0
93.73877387  -0.0004802520187  0
93.91953391  -0.0004784051859  0
94  -0.0004775864855  0
94.08046609  -0.0004767698849  0
94.26122613  -0.0004749430826  0
94.52207505  -0.0004723253355  0
94.83472104  -0.0004692161956  0
95.16527896  -0.0004659621989  0
95.47792495  -0.0004629155744  0
95.73877387  -0.0004603965004  0
95.91953391  -0.0004586629041  0
96  -0.0004578943344  0
96.08046609  -0.0004571276949  0
96.26122613  -0.0004554125113  0
96.52207505  -0.0004529543515  0
96.83472104  -0.0004500342058  0
97.16527896  -0.0004469773664  0
97.47792495  -0.0004441147373  0
97.73877387  -0.0004417473603  0
97.91953391  -0.0004401179292  0
98  -0.0004393954796  0
98.08046609  -0.0004386748074  0
98.26122613  -0.0004370623312  0
98.52207505  -0.0004347510459  0
98.83472104  -0.0004320048817  0
99.16527896  -0.0004291295885  0
99.47792495  -0.000426436432  0
99.73877387  -0.0004242088124  0
99.91953391  -0.0004226753656  0
100  -0.0004219954186  0
100.0804661  -0.000421317111  0
100.2612261  -0.0004197993029  0
100.5220751  -0.0004176234204  0
100.834721  -0.0004150376866  0
101.165279  -0.0004123298435  0
101.4779249  -0.0004097930418  0
101.7387739  -0.0004076943919  0
101.9195339  -0.0004062495363  0
102  -0.0004056088222  0
102.0804661  -0.0004049696226  0
102.2612261  -0.0004035392148  0
102.5220751  -0.0004014883618  0
102.834721  -0.0003990508015  0
103.165279  -0.0003964976543  0
103.4779249  -0.0003941053347  0
103.7387739  -0.0003921258877  0
103.9195339  -0.0003907629285  0
104  -0.0003901584861  0
104.0804661  -0.0003895554452  0
104.2612261  -0.0003882058539  0
104.5220751  -0.0003862706318  0
104.834721  -0.0003839701366  0
105.165279  -0.0003815601227  0
105.4779249  -0.0003793015184  0
105.7387739  -0.000377432415  0
105.9195339  -0.0003761452778  0
106  -0.0003755744202  0
106.0804661  -0.0003750048612  0
106.2612261  -0.0003737301114  0
106.5220751  -0.0003719019883  0
106.834721  -0.0003697284715  0
107.165279  -0.0003674510887  0
107.4779249  -0.0003653164175  0
107.7387739  -0.0003635496063  0
107.9195339  -0.0003623327699  0
108  -0.0003617930543  0
108.0804661  -0.0003612545438  0
108.2612261  -0.0003600492023  0
108.5220751  -0.0003583204191  0
108.834721  -0.000356264705  0
109.165279  -0.000354110397  0
109.4779249  -0.000352090755  0
109.7387739  -0.0003504189058  0
109.9195339  -0.0003492673425  0
110  -0.0003487565443  0
110.0804661  -0.0003482468659  0
110.2612261  -0.0003471059839  0
110.5220751  -0.0003454694716  0
110.834721  -0.0003435231986  0
111.165279  -0.0003414832545  0
111.4779249  -0.0003395705232  0
111.7387739  -0.0003379869509  0
111.9195339  -0.0003368960743  0
112  -0.0003364121641  0
112.0804661  -0.0003359292957  0
112.2612261  -0.0003348483578  0
112.5220751  -0.0003332976649  0
112.834721  -0.0003314532005  0
113.165279  -0.0003295196665  0
113.4779249  -0.0003277064313  0
113.7387739  -0.0003262050287  0
113.9195339  -0.0003251706486  0
114  -0.0003247117718  0
114.0804661  -0.0003242538656  0
114.2612261  -0.0003232287448  0
114.5220751  -0.0003217579743  0
114.834721  -0.0003200083397  0
115.165279  -0.0003181739417  0
115.4779249  -0.0003164534199  0
115.7387739  -0.000315028599  0
115.9195339  -0.0003140468803  0
116  -0.0003136113396  0
116.0804661  -0.0003131767043  0
116.2612261  -0.0003122036228  0
116.5220751  -0.0003108073754  0
116.834721  -0.0003091461798  0
117.165279  -0.0003074042548  0
117.4779249  -0.0003057702317  0
117.7387739  -0.0003044168716  0
117.9195339  -0.0003034842996  0
118  -0.0003030705391  0
118.0804661  -0.0003026576242  0
118.2612261  -0.0003017331184  0
118.5220751  -0.0003004064432  0
118.834721  -0.0002988278251  0
119.165279  -0.0002971722607  0
119.4779249  -0.0002956190339  0
119.7387739  -0.0002943324346  0
119.9195339  -0.0002934457827  0
120  -0.000293052374  0
120.0804661  -0.000292659756  0
120.2612261  -0.0002917806458  0
120.5220751  -0.0002905189964  0
120.834721  -0.0002890175721  0
121.165279  -0.0002874427525  0
121.4779249  -0.000285965082  0
121.7387739  -0.0002847409236  0
121.9195339  -0.0002838972258  0
122  -0.0002835228558  0
122.0804661  -0.0002831492259  0
122.2612261  -0.0002823125873  0
122.5220751  -0.0002811117826  0
122.834721  -0.0002796826  0
123.165279  -0.0002781833587  0
123.4779249  -0.0002767764222  0
123.7387739  -0.0002756107288  0
123.9195339  -0.0002748072547  0
124  -0.0002744507145  0
124.0804661  -0.0002740948677  0
124.2612261  -0.0002732980083  0
124.5220751  -0.0002721541979  0
124.834721  -0.0002707926958  0
125.165279  -0.000269364273  0
125.4779249  -0.000268023627  0
125.7387739  -0.0002669127341  0
125.9195339  -0.0002661469669  0
126  -0.000265807142  0
126.0804661  -0.0002654679675  0
126.2612261  -0.0002647084049  0
126.5220751  -0.0002636180383  0
126.834721  -0.0002623200098  0
127.165279  -0.0002609580145  0
127.4779249  -0.000259679559  0
127.7387739  -0.0002586200848  0
127.9195339  -0.0002578897014  0
128  -0.0002575655631  0
128.0804661  -0.0002572420355  0
128.2612261  -0.000256517478  0
128.5220751  -0.0002554772769  0
128.834721  -0.000254238837  0
129.165279  -0.0002529392134  0
129.4779249  -0.0002517191605  0
129.7387739  -0.00025070798  0
129.9195339  -0.0002500108337  0
130  -0.0002497014311  0
130.0804661  -0.0002493926025  0
130.2612261  -0.0002487009318  0
130.5220751  -0.0002477078654  0
130.834721  -0.0002465254218  0
131.165279  -0.0002452844189  0
131.4779249  -0.000244119265  0
131.7387739  -0.000243153487  0
131.9195339  -0.0002424875913  0
132  -0.0002421920446  0
132.0804661  -0.0002418970379  0
132.2612261  -0.0002412362934  0
132.5220751  -0.0002402875565  0
132.834721  -0.0002391577836  0
133.165279  -0.0002379719283  0
133.4779249  -0.0002368584283  0
133.7387739  -0.0002359353749  0
133.9195339  -0.0002352988896  0
134  -0.0002350163837  0
134.0804661  -0.0002347343863  0
134.2612261  -0.0002341027514  0
134.5220751  -0.0002331957442  0
134.834721  -0.0002321155597  0
135.165279  -0.0002309816322  0
135.4779249  -0.0002299167775  0
135.7387739  -0.0002290339654  0
135.9195339  -0.0002284251837  0
136  -0.0002281549625  0
136.0804661  -0.0002278852204  0
136.2612261  -0.0002272810101  0
136.5220751  -0.0002264133209  0
136.834721  -0.0002253798647  0
137.165279  -0.0002242948768  0
137.4779249  -0.0002232758746  0
137.7387739  -0.0002224309982  0
137.9195339  -0.0002218483354  0
138  -0.0002215896968  0
138.0804661  -0.0002213315102  0
138.2612261  -0.0002207531595  0
138.5220751  -0.0002199225481  0
138.834721  -0.0002189331633  0
139.165279  -0.0002178943389  0
139.4779249  -0.000216918594  0
139.7387739  -0.0002161095105  0
139.9195339  -0.0002155514936  0
140  -0.000215303785  0
140.0804661  -0.0002150565031  0
140.2612261  -0.0002145025571  0
140.5220751  -0.0002137069408  0
140.834721  -0.0002127591567  0
141.165279  -0.0002117639137  0
141.4779249  -0.0002108290118  0
141.7387739  -0.0002100537277  0
141.9195339  -0.0002095189861  0
142  -0.0002092816002  0
142.0804661  -0.0002090446175  0
