#L=1 M=1
#R     Re(V)   Im(V)

0.08046609183  0.03465130446  -0.02762113548
0.2612261349  0.1126446613  -0.08969559946
0.5220750502  0.2261278964  -0.1794324048
0.8347210423  0.3648256945  -0.2874432771
1.165278958  0.5162617513  -0.4024480549
1.47792495  0.6653805022  -0.5121946285
1.738773865  0.794825343  -0.6045684208
1.919533908  0.8873132586  -0.669011447
2  0.9289518824  -0.6978039607
2.080466092  0.8455002573  -0.6426524745
2.261226135  0.6898835173  -0.5396121837
2.52207505  0.5237957935  -0.4283081684
2.834721042  0.3852611861  -0.3333264349
3.165278958  0.2843596959  -0.261677971
3.47792495  0.2164120074  -0.2112478165
3.738773865  0.1733648715  -0.1778053991
3.919533908  0.1487924781  -0.1579795923
4  0.1389663881  -0.1498678592
4.080466092  0.1328268269  -0.1452313283
4.261226135  0.1205300743  -0.13564575
4.52207505  0.1057715844  -0.1235015832
4.834721042  0.09160973967  -0.1110168999
5.165278958  0.07969971066  -0.09972695166
5.47792495  0.07056623672  -0.09048293224
5.738773865  0.06415582509  -0.08365110484
5.919533908  0.06023619774  -0.0793235037
6  0.05861108066  -0.07749454704
6.080466092  0.05705355009  -0.07572223182
6.261226135  0.05378136282  -0.07193609883
6.52207505  0.04954835928  -0.06691065848
6.834721042  0.04511674914  -0.0614945334
7.165278958  0.04105859573  -0.05639757232
7.47792495  0.03770953646  -0.05209548832
7.738773865  0.03522147255  -0.04884586533
7.919533908  0.03363966519  -0.04675727677
8  0.03296969812  -0.04586756571
8.080466092  0.03231958884  -0.04500140227
8.261226135  0.03092757098  -0.04313767441
8.52207505  0.02907205915  -0.04063496272
8.834721042  0.02705978776  -0.03789863164
9.165278958  0.02515078894  -0.03528327561
9.47792495  0.02352470597  -0.03304207989
9.738773865  0.02228534682  -0.0313264445
9.919533908  0.02148288826  -0.03021248169
10  0.02113949862  -0.02973509188
10.08046609  0.02080424816  -0.02926863037
10.26122613  0.02007951814  -0.02825900547
10.52207505  0.01909842403  -0.02688970405
10.83472104  0.01801412782  -0.02537331234
11.16527896  0.01696488323  -0.02390326492
11.47792495  0.01605442004  -0.02262581257
11.73877387  0.01534960798  -0.02163588405
11.91953391  0.01488801708  -0.02098713939
12  0.01468919621  -0.02070761036
12.08046609  0.01449432418  -0.02043358044
12.26122613  0.01407043129  -0.01983733012
12.52207505  0.01349070695  -0.01902154008
12.83472104  0.0128418075  -0.01810798913
13.16527896  0.01220530384  -0.01721152355
13.47792495  0.01164581335  -0.01642327273
13.73877387  0.01120791228  -0.01580618647
13.91953391  0.01091877889  -0.01539868404
14  0.01079365429  -0.01522232137
14.08046609  0.01067066686  -0.01504896388
14.26122613  0.01040193212  -0.01467014441
14.52207505  0.01003166377  -0.01414815181
14.83472104  0.009613333405  -0.01355834595
15.16527896  0.009198859058  -0.01297392674
15.47792495  0.008831017642  -0.01245522672
15.73877387  0.00854073786  -0.01204587879
15.91953391  0.00834789618  -0.0117739286
16  0.008264146193  -0.01165582049
16.08046609  0.008181650013  -0.01153947958
16.26122613  0.008000773955  -0.01128439451
16.52207505  0.007750146253  -0.01093093397
16.83472104  0.007464963739  -0.01052873298
17.16527896  0.007180227432  -0.01012715448
17.47792495  0.006925648819  -0.009768104272
17.73877387  0.006723465654  -0.009482948477
17.91953391  0.006588507876  -0.009292605178
18  0.006529734434  -0.009209711378
18.08046609  0.006471743906  -0.009127921663
18.26122613  0.006344257106  -0.00894811413
18.52207505  0.006166822614  -0.008697859438
18.83472104  0.005963791295  -0.008411501769
19.16527896  0.005759842398  -0.008123849012
19.47792495  0.005576421118  -0.007865148094
19.73877387  0.005430009985  -0.007658646651
19.91953391  0.005331907975  -0.007520281298
20  0.005289090591  -0.007459890632
20.08046609  0.0052467869  -0.007400224474
20.26122613  0.005153586499  -0.007268772297
20.52207505  0.005023408433  -0.007085165775
20.83472104  0.004873777159  -0.006874121801
21.16527896  0.004722729447  -0.006661079919
21.47792495  0.004586236304  -0.006468566119
21.73877387  0.004476833933  -0.006314261863
21.91953391  0.004403301743  -0.006210549924
22  0.004371150072  -0.006165202268
22.08046609  0.004339349262  -0.006120349475
22.26122613  0.004269164796  -0.00602135924
22.52207505  0.004170847225  -0.005882689232
22.83472104  0.004057417206  -0.00572270416
23.16527896  0.003942448426  -0.005560548757
23.47792495  0.003838147591  -0.00541343973
23.73877387  0.003754261546  -0.005295124329
23.91953391  0.003697734002  -0.005215396178
24  0.003672980386  -0.005180482932
24.08046609  0.003648474502  -0.005145919094
24.26122613  0.003594310582  -0.005069524667
24.52207505  0.003518249698  -0.004962246099
24.83472104  0.003430224321  -0.004838092445
25.16527896  0.003340700919  -0.004711825929
25.47792495  0.003259214822  -0.00459689547
25.73877387  0.003193488718  -0.004504193382
25.91953391  0.00314910194  -0.004441588925
26  0.003129640109  -0.004414139368
26.08046609  0.003110358136  -0.004386943489
26.26122613  0.003067687355  -0.004326759326
26.52207505  0.003007641688  -0.004242069096
26.83472104  0.00293796708  -0.004143797916
27.16527896  0.002866901402  -0.004043564728
27.47792495  0.002802032893  -0.003952072217
27.73877387  0.002749581361  -0.003878092984
27.91953391  0.002714093266  -0.003828039499
28  0.002698516219  -0.003806069158
28.08046609  0.002683072889  -0.003784287418
28.26122613  0.002648860548  -0.003736033294
28.52207505  0.00260063174  -0.00366800992
28.83472104  0.002544541784  -0.003588898944
29.16527896  0.002487189216  -0.003508007141
29.47792495  0.002434710214  -0.003433989165
29.73877387  0.002392186187  -0.003374011987
29.91953391  0.002363368528  -0.003333366686
30  0.002350707462  -0.003315509134
30.08046609  0.002338147866  -0.003297794699
30.26122613  0.002310298273  -0.003258514788
30.52207505  0.002270978296  -0.003203056699
30.83472104  0.002225158993  -0.003138431764
31.16527896  0.002178206543  -0.003072208604
31.47792495  0.002135152524  -0.003011483909
31.73877387  0.002100200731  -0.00296218684
31.91953391  0.002076481246  -0.002928732159
32  0.00206605148  -0.0029140217
32.08046609  0.002055700097  -0.002899421796
32.26122613  0.002032728408  -0.002867021828
32.52207505  0.002000251478  -0.002821215381
32.83472104  0.001962340799  -0.002767745009
33.16527896  0.001923418488  -0.0027128478
33.47792495  0.001887661127  -0.002662414534
33.73877387  0.001858585328  -0.002621405145
33.91953391  0.001838828996  -0.002593540214
34  0.001830135567  -0.002581278738
34.08046609  0.001821503643  -0.00256910401
34.26122613  0.001802334071  -0.002542066664
34.52207505  0.001775200087  -0.00250379607
34.83472104  0.001743477798  -0.002459053991
35.16527896  0.001710854047  -0.002413040463
35.47792495  0.001680833418  -0.002370698456
35.73877387  0.001656386943  -0.002336218406
35.91953391  0.001639757818  -0.002312764183
36  0.001632435737  -0.002302436899
36.08046609  0.001625162591  -0.002292178633
36.26122613  0.001609000299  -0.002269382846
36.52207505  0.001586098689  -0.00223708172
36.83472104  0.001559287958  -0.002199267051
37.16527896  0.001531673863  -0.002160319294
37.47792495  0.001506225587  -0.002124426274
37.73877387  0.001485475604  -0.002095159867
37.91953391  0.001471347021  -0.002075232485
38  0.001465122379  -0.002066453062
38.08046609  0.001458937155  -0.002057729233
38.26122613  0.001445184611  -0.002038332228
38.52207505  0.001425678989  -0.002010820908
38.83472104  0.001402816016  -0.001978574276
39.16527896  0.001379236199  -0.001945316587
39.47792495  0.001357476941  -0.001914626669
39.73877387  0.001339714228  -0.001889573599
39.91953391  0.00132760895  -0.001872499948
40  0.001322272947  -0.001864973888
40.08046609  0.00131696905  -0.001857493111
40.26122613  0.001305170056  -0.001840851451
40.52207505  0.001288420844  -0.001817227855
40.83472104  0.001268767102  -0.00178950762
41.16527896  0.001248472469  -0.001760883454
41.47792495  0.001229722311  -0.001734437662
41.73877387  0.001214399896  -0.001712826464
41.91953391  0.001203949318  -0.001698086651
42  0.001199340542  -0.001691586293
42.08046609  0.001194758179  -0.00168512319
42.26122613  0.001184559579  -0.001670738775
42.52207505  0.001170070947  -0.001650303569
42.83472104  0.001153052839  -0.001626300713
43.16527896  0.001135460398  -0.001601487799
43.47792495  0.001119189117  -0.001578538291
43.73877387  0.001105879702  -0.001559766289
43.91953391  0.001096795475  -0.00154695362
44  0.00109278756  -0.001541300734
44.08046609  0.001088801573  -0.001535678777
44.26122613  0.001079926539  -0.00152316116
44.52207505  0.001067309317  -0.001505365447
44.83472104  0.001052475879  -0.001484443917
45.16527896  0.001037126429  -0.001462794586
45.47792495  0.001022915629  -0.001442751242
45.73877387  0.001011281492  -0.001426342103
45.91953391  0.00100333544  -0.00141513475
46  0.0009998283155  -0.001410188195
46.08046609  0.0009963395473  -0.001405267531
46.26122613  0.0009885686109  -0.001394307166
46.52207505  0.0009775138967  -0.001378715262
46.83472104  0.0009645066353  -0.001360369426
47.16527896  0.0009510345191  -0.001341367944
47.47792495  0.00093855048  -0.001323760077
47.73877387  0.0009283218547  -0.001309333313
47.91953391  0.0009213315109  -0.00129947392
48  0.0009182451023  -0.001295120756
48.08046609  0.0009151741767  -0.001290789429
48.26122613  0.0009083315356  -0.00128113836
48.52207505  0.0008985916215  -0.00126740089
48.83472104  0.0008871226603  -0.001251224719
49.16527896  0.0008752337981  -0.001234456307
49.47792495  0.0008642077176  -0.001218904789
49.73877387  0.000855167023  -0.001206153519
49.91953391  0.0008489850679  -0.001197434302
50  0.0008462546863  -0.001193583288
50.08046609  0.0008435374551  -0.001189750823
50.26122613  0.0008374809502  -0.001181208545
50.52207505  0.0008288553328  -0.001169042712
50.83472104  0.0008186913578  -0.001154707134
51.16527896  0.0008081470702  -0.00113983515
51.47792495  0.0007983604799  -0.001126031847
51.73877387  0.0007903306608  -0.001114706346
51.91953391  0.0007848371015  -0.001106958063
52  0.000782410028  -0.001103534845
52.08046609  0.0007799941955  -0.001100127482
52.26122613  0.0007746078712  -0.001092530446
52.52207505  0.0007669328557  -0.001081705372
52.83472104  0.000757883161  -0.001068941408
53.16527896  0.0007484881025  -0.001055690332
53.47792495  0.0007397619689  -0.001043382728
53.73877387  0.0007325977646  -0.001033278117
53.91953391  0.0007276940711  -0.001026361799
54  0.0007255269944  -0.001023305288
54.08046609  0.0007233695836  -0.001020262411
54.26122613  0.0007185580992  -0.001013476147
54.52207505  0.0007116989791  -0.001003801836
54.83472104  0.0007036064604  -0.0009923879022
55.16527896  0.0006951995112  -0.0009805304858
55.47792495  0.0006873859926  -0.0009695100621
55.73877387  0.0006809673249  -0.0009604569785
55.91953391  0.000676571983  -0.0009542576548
56  0.0006746290547  -0.0009515172899
56.08046609  0.0006726944839  -0.0009487887124
56.26122613  0.000668378867  -0.0009427018355
56.52207505  0.0006622239762  -0.0009340207907
56.83472104  0.0006549582695  -0.0009237730175
57.16527896  0.0006474055842  -0.000913120481
57.47792495  0.0006403817305  -0.0009032138246
57.73877387  0.0006346086411  -0.0008950712841
57.91953391  0.0006306537445  -0.0008894931779
58  0.0006289050879  -0.0008870268196
58.08046609  0.0006271636942  -0.0008845707051
58.26122613  0.0006232780817  -0.0008790903194
58.52207505  0.0006177342224  -0.0008712710919
58.83472104  0.0006111864228  -0.0008620358767
59.16527896  0.0006043760728  -0.0008524303524
59.47792495  0.0005980389609  -0.0008434922975
59.73877387  0.0005928276978  -0.0008361421739
59.91953391  0.0005892563107  -0.0008311049812
60  0.0005876768655  -0.0008288772837
60.08046609  0.000586103762  -0.0008266585308
60.26122613  0.0005825928728  -0.0008217066661
60.52207505  0.000577581768  -0.0008146388519
60.83472104  0.0005716603271  -0.0008062870719
61.16527896  0.0005654981309  -0.0007975957234
61.47792495  0.0005597610744  -0.0007895040048
61.73877387  0.0005550410385  -0.000782846723
61.91953391  0.0005518051357  -0.0007782827075
62  0.0005503737554  -0.0007762638453
62.08046609  0.0005489479373  -0.0007742528282
62.26122613  0.0005457650957  -0.0007697636518
62.52207505  0.0005412206126  -0.0007633539749
62.83472104  0.0005358481216  -0.0007557764506
63.16527896  0.0005302543725  -0.0007478868572
63.47792495  0.0005250439425  -0.0007405379085
63.73877387  0.0005207552846  -0.0007344890553
63.91953391  0.000517814129  -0.0007303407602
64  0.00051651287  -0.0007285054251
64.08046609  0.00051521651  -0.0007266769996
64.26122613  0.0005123220873  -0.000722594618
64.52207505  0.0005081880441  -0.0007167638379
64.83472104  0.0005032986925  -0.0007098677481
65.16527896  0.0004982055691  -0.0007026842523
65.47792495  0.0004934592334  -0.0006959898765
65.73877387  0.0004895509485  -0.0006904775127
65.91953391  0.0004868698032  -0.0006866959441
66  0.0004856833599  -0.0006850225485
66.08046609  0.0004845012482  -0.0006833552622
66.26122613  0.0004818614235  -0.0006796319734
66.52207505  0.0004780898456  -0.0006743124255
66.83472104  0.0004736273967  -0.0006680184521
67.16527896  0.0004689768979  -0.0006614592476
67.47792495  0.0004646411371  -0.000655343959
67.73877387  0.0004610695409  -0.0006503064713
67.91953391  0.0004586186393  -0.0006468496453
68  0.0004575338918  -0.0006453196845
68.08046609  0.0004564529883  -0.0006437951454
68.26122613  0.0004540387563  -0.0006403900393
68.52207505  0.0004505884788  -0.0006355236632
68.83472104  0.0004465046457  -0.0006297637011
69.16527896  0.0004422469328  -0.0006237584937
69.47792495  0.0004382757251  -0.0006181573819
69.73877387  0.0004350032288  -0.0006135417537
69.91953391  0.0004327569449  -0.0006103735268
70  0.000431762595  -0.0006089710655
70.08046609  0.0004307716683  -0.0006075734324
70.26122613  0.0004285580394  -0.000604451263
70.52207505  0.000425393579  -0.000599988012
70.83472104  0.0004216467134  -0.0005947033191
71.16527896  0.0004177387696  -0.0005891914366
71.47792495  0.0004140923649  -0.0005840484368
71.73877387  0.0004110864823  -0.0005798088487
71.91953391  0.0004090226583  -0.0005768979688
72  0.0004081089344  -0.0005756092248
72.08046609  0.0004071982687  -0.0005743247943
72.26122613  0.0004051636197  -0.0005714550636
72.52207505  0.0004022542594  -0.0005673516136
72.83472104  0.0003988082859  -0.000562491308
73.16527896  0.0003952128254  -0.0005574201614
73.47792495  0.0003918567472  -0.0005526866468
73.73877387  0.0003890892855  -0.0005487833349
73.91953391  0.0003871886836  -0.0005461026683
74  0.0003863470993  -0.0005449156722
74.08046609  0.0003855082558  -0.000543732542
74.26122613  0.0003836338004  -0.0005410887532
74.52207505  0.0003809528412  -0.0005373074469
74.83472104  0.0003777763856  -0.0005328272776
75.16527896  0.0003744609616  -0.0005281511029
75.47792495  0.000371365189  -0.0005237847313
75.73877387  0.0003688115856  -0.0005201830517
75.91953391  0.000367057438  -0.0005177089487
76  0.0003662805948  -0.0005166132654
76.08046609  0.0003655062152  -0.0005155210569
76.26122613  0.0003637755685  -0.0005130801003
76.52207505  0.0003612997148  -0.0005095880812
76.83472104  0.0003583653881  -0.0005054494177
77.16527896  0.0003553016581  -0.00050112824
77.47792495  0.0003524399524  -0.0004970920034
77.73877387  0.0003500787281  -0.000493761661
77.91953391  0.0003484563661  -0.0004914734324
78  0.0003477377902  -0.0004904599312
78.08046609  0.0003470214348  -0.0004894495617
78.26122613  0.0003454202544  -0.0004871912084
78.52207505  0.0003431291067  -0.000483959704
78.83472104  0.0003404129122  -0.0004801287009
79.16527896  0.0003375760308  -0.0004761274773
79.47792495  0.0003349253777  -0.0004723889157
79.73877387  0.0003327376835  -0.0004693033255
79.91953391  0.0003312342298  -0.0004671828088
80  0.0003305682368  -0.0004662434721
80.08046609  0.0003299042504  -0.0004653069655
80.26122613  0.0003284199383  -0.0004632134467
80.52207505  0.0003262955712  -0.0004602171748
80.83472104  0.0003237764131  -0.0004566640778
81.16527896  0.0003211445263  -0.0004529519847
81.47792495  0.0003186846719  -0.0004494825315
81.73877387  0.0003166539121  -0.0004466182863
81.91953391  0.0003152580247  -0.0004446494842
82  0.0003146396067  -0.0004437772488
82.08046609  0.0003140230067  -0.0004429075774
82.26122613  0.0003126444606  -0.0004409632341
82.52207505  0.0003106710716  -0.0004381799065
82.83472104  0.0003083303439  -0.000434878473
83.16527896  0.0003058841672  -0.0004314283112
83.47792495  0.0003035972303  -0.0004282027461
83.73877387  0.0003017087464  -0.000425539171
83.91953391  0.0003004104039  -0.0004237079493
84  0.0002998351354  -0.0004228965733
84.08046609  0.0002992615179  -0.0004220875256
84.26122613  0.0002979789231  -0.0004202785151
84.52207505  0.000296142538  -0.0004176884219
84.83472104  0.0002939637799  -0.0004146154353
85.16527896  0.0002916862444  -0.0004114031301
85.47792495  0.0002895563902  -0.0004083991192
85.73877387  0.0002877971961  -0.0004059178984
85.91953391  0.0002865875175  -0.000404211731
86  0.0002860514759  -0.0004034556816
86.08046609  0.0002855169368  -0.0004027017515
86.26122613  0.0002843215914  -0.0004010158001
86.52207505  0.000282609816  -0.00039860146
86.83472104  0.000280578422  -0.0003957363204
87.16527896  0.0002784543755  -0.0003927405007
87.47792495  0.0002764675412  -0.0003899382093
87.73877387  0.0002748260991  -0.0003876230696
87.91953391  0.0002736971916  -0.0003860308242
88  0.0002731968899  -0.0003853251835
88.08046609  0.0002726979588  -0.0003846214759
88.26122613  0.0002715821252  -0.0003830476704
88.52207505  0.0002699839357  -0.0003807935353
88.83472104  0.0002680869103  -0.0003781179132
89.16527896  0.0002661028648  -0.0003753195552
89.47792495  0.0002642465266  -0.0003727013195
89.73877387  0.0002627125578  -0.0003705377633
89.91953391  0.0002616573877  -0.0003690495193
90  0.000261189718  -0.0003683899038
90.08046609  0.000260723301  -0.0003677320552
90.26122613  0.0002596800809  -0.0003662606659
90.52207505  0.000258185646  -0.0003641528696
90.83472104  0.0002564113952  -0.0003616504124
91.16527896  0.0002545553124  -0.0003590325369
91.47792495  0.0002528182879  -0.0003565825849
91.73877387  0.000251382611  -0.0003545576626
91.91953391  0.0002503948938  -0.0003531645563
92  0.0002499570789  -0.0003525470488
92.08046609  0.0002495204112  -0.0003519311595
92.26122613  0.0002485436382  -0.0003505534892
92.52207505  0.000247144168  -0.0003485796339
92.83472104  0.0002454823216  -0.0003462357153
93.16527896  0.0002437434298  -0.0003437831296
93.47792495  0.0002421157093  -0.0003414873432
93.73877387  0.0002407701029  -0.0003395894591
93.91953391  0.0002398442096  -0.0003382835511
94  0.0002394337614  -0.0003377046425
94.08046609  0.0002390243659  -0.0003371272187
94.26122613  0.0002381085147  -0.0003358354744
94.52207505  0.0002367961304  -0.0003339844477
94.83472104  0.0002352373906  -0.0003317859538
95.16527896  0.0002336060281  -0.0003294850306
95.47792495  0.0002320786298  -0.0003273307418
95.73877387  0.0002308157144  -0.0003255494875
95.91953391  0.0002299465912  -0.0003243236497
96  0.0002295612756  -0.0003237801889
96.08046609  0.0002291769277  -0.000323238093
96.26122613  0.0002283170355  -0.000322025275
96.52207505  0.0002270846588  -0.0003202870935
96.83472104  0.0002256206696  -0.0003182222387
97.16527896  0.0002240881502  -0.0003160607268
97.47792495  0.0002226529964  -0.0003140365424
97.73877387  0.0002214661329  -0.0003123625541
97.91953391  0.000220649232  -0.0003112103722
98  0.0002202870383  -0.0003106995232
98.08046609  0.0002199257356  -0.000310189931
98.26122613  0.000219117335  -0.0003090497382
98.52207505  0.0002179585925  -0.0003074154127
98.83472104  0.0002165818274  -0.0003054735813
99.16527896  0.0002151403246  -0.0003034404421
99.47792495  0.0002137901344  -0.0003015360928
99.73877387  0.000212673337  -0.0002999609279
99.91953391  0.000211904557  -0.0002988766173
100  0.0002115636716  -0.0002983958221
