#L=6 M=5
#R     Re(V)   Im(V)

0.08046609183  -6.91532167e-13  6.909086374e-13
0.2612261349  -8.106884421e-10  8.106883763e-10
0.5220750502  -5.195351524e-08  5.195351513e-08
0.8347210423  -8.780271579e-07  8.78027158e-07
1.165278958  -6.614672215e-06  6.614672215e-06
1.47792495  -2.812612193e-05  2.812612193e-05
1.738773865  -7.615636127e-05  7.615636127e-05
1.919533908  -0.0001400576429  0.0001400576429
2  -0.0001805173706  0.0001805173706
2.080466092  -0.0002304566949  0.0002304566949
2.261226135  -0.0003866613262  0.0003866613262
2.52207505  -0.000764447939  0.000764447939
2.834721042  -0.001592825914  0.001592825914
3.165278958  -0.003197370974  0.003197370974
3.47792495  -0.005809817544  0.005809817544
3.738773865  -0.0091923674  0.0091923674
3.919533908  -0.01239613908  0.01239613908
4  -0.01409457015  0.01409457015
4.080466092  -0.01213079506  0.01213079506
4.261226135  -0.008709285351  0.008709285351
4.52207505  -0.005462669301  0.005462669301
4.834721042  -0.00316593257  0.00316593257
5.165278958  -0.001795876352  0.001795876352
5.47792495  -0.001053354117  0.001053354117
5.738773865  -0.0006727408699  0.0006727408699
5.919533908  -0.0004907847537  0.0004907847537
6  -0.0004257004861  0.0004257004861
6.080466092  -0.0003686972268  0.0003686972268
6.261226135  -0.0002651055669  0.0002651055669
6.52207505  -0.0001607759414  0.0001607759414
6.834721042  -8.279811574e-05  8.279811574e-05
7.165278958  -3.489225271e-05  3.489225271e-05
7.47792495  -9.211643351e-06  9.211643351e-06
7.738773865  3.243498521e-06  -3.243498521e-06
7.919533908  8.709941075e-06  -8.709941075e-06
8  1.052132887e-05  -1.052132887e-05
8.080466092  1.201647775e-05  -1.201647775e-05
8.261226135  1.442129614e-05  -1.442129614e-05
8.52207505  1.615504346e-05  -1.615504346e-05
8.834721042  1.649728375e-05  -1.649728375e-05
9.165278958  1.570396125e-05  -1.570396125e-05
9.47792495  1.441633966e-05  -1.441633966e-05
9.738773865  1.317706698e-05  -1.317706698e-05
9.919533908  1.229468555e-05  -1.229468555e-05
10  1.190354366e-05  -1.190354366e-05
10.08046609  1.151575552e-05  -1.151575552e-05
10.26122613  1.066330734e-05  -1.066330734e-05
10.52207505  9.495916192e-06  -9.495916192e-06
10.83472104  8.216976975e-06  -8.216976975e-06
11.16527896  7.019374916e-06  -7.019374916e-06
11.47792495  6.031198506e-06  -6.031198506e-06
11.73877387  5.307726091e-06  -5.307726091e-06
11.91953391  4.856286343e-06  -4.856286343e-06
12  4.66766898e-06  -4.66766898e-06
12.08046609  4.486325688e-06  -4.486325688e-06
12.26122613  4.104272743e-06  -4.104272743e-06
12.52207505  3.610284331e-06  -3.610284331e-06
12.83472104  3.097888795e-06  -3.097888795e-06
13.16527896  2.63802074e-06  -2.63802074e-06
13.47792495  2.269199243e-06  -2.269199243e-06
13.73877387  2.003650276e-06  -2.003650276e-06
13.91953391  1.839369826e-06  -1.839369826e-06
14  1.770980923e-06  -1.770980923e-06
14.08046609  1.70534233e-06  -1.70534233e-06
14.26122613  1.567337124e-06  -1.567337124e-06
14.52207505  1.389218812e-06  -1.389218812e-06
14.83472104  1.204405158e-06  -1.204405158e-06
15.16527896  1.037994581e-06  -1.037994581e-06
15.47792495  9.037626725e-07  -9.037626725e-07
15.73877387  8.064582917e-07  -8.064582917e-07
15.91953391  7.458925453e-07  -7.458925453e-07
16  7.205802828e-07  -7.205802828e-07
16.08046609  6.962250356e-07  -6.962250356e-07
16.26122613  6.448032056e-07  -6.448032056e-07
16.52207505  5.779388247e-07  -5.779388247e-07
16.83472104  5.078456865e-07  -5.078456865e-07
17.16527896  4.439613091e-07  -4.439613091e-07
17.47792495  3.917740435e-07  -3.917740435e-07
17.73877387  3.535022191e-07  -3.535022191e-07
17.91953391  3.294631352e-07  -3.294631352e-07
18  3.193618956e-07  -3.193618956e-07
18.08046609  3.096102148e-07  -3.096102148e-07
18.26122613  2.889104789e-07  -2.889104789e-07
18.52207505  2.617481928e-07  -2.617481928e-07
18.83472104  2.329347434e-07  -2.329347434e-07
19.16527896  2.063223326e-07  -2.063223326e-07
19.47792495  1.842932108e-07  -1.842932108e-07
19.73877387  1.679478652e-07  -1.679478652e-07
19.91953391  1.575889549e-07  -1.575889549e-07
20  1.532132151e-07  -1.532132151e-07
20.08046609  1.489753831e-07  -1.489753831e-07
20.26122613  1.399336312e-07  -1.399336312e-07
20.52207505  1.279666777e-07  -1.279666777e-07
20.83472104  1.15131665e-07  -1.15131665e-07
21.16527896  1.031321285e-07  -1.031321285e-07
21.47792495  9.307995375e-08  -9.307995375e-08
21.73877387  8.554305365e-08  -8.554305365e-08
21.91953391  8.072857543e-08  -8.072857543e-08
22  7.868544478e-08  -7.868544478e-08
22.08046609  7.670114088e-08  -7.670114088e-08
22.26122613  7.244840932e-08  -7.244840932e-08
22.52207505  6.677741808e-08  -6.677741808e-08
22.83472104  6.063650264e-08  -6.063650264e-08
23.16527896  5.483458788e-08  -5.483458788e-08
23.47792495  4.99239897e-08  -4.99239897e-08
23.73877387  4.620894086e-08  -4.620894086e-08
23.91953391  4.381965885e-08  -4.381965885e-08
24  4.28016886e-08  -4.28016886e-08
24.08046609  4.181064777e-08  -4.181064777e-08
24.26122613  3.967847834e-08  -3.967847834e-08
24.52207505  3.681692719e-08  -3.681692719e-08
24.83472104  3.369277523e-08  -3.369277523e-08
25.16527896  3.071444425e-08  -3.071444425e-08
25.47792495  2.817142744e-08  -2.817142744e-08
25.73877387  2.623275005e-08  -2.623275005e-08
25.91953391  2.497867579e-08  -2.497867579e-08
26  2.444255842e-08  -2.444255842e-08
26.08046609  2.391955023e-08  -2.391955023e-08
26.26122613  2.279062155e-08  -2.279062155e-08
26.52207505  2.12671623e-08  -2.12671623e-08
26.83472104  1.959220416e-08  -1.959220416e-08
27.16527896  1.798309401e-08  -1.798309401e-08
27.47792495  1.659879615e-08  -1.659879615e-08
27.73877387  1.55365166e-08  -1.55365166e-08
27.91953391  1.484593426e-08  -1.484593426e-08
28  1.454985092e-08  -1.454985092e-08
28.08046609  1.426049682e-08  -1.426049682e-08
28.26122613  1.363414784e-08  -1.363414784e-08
28.52207505  1.278490088e-08  -1.278490088e-08
28.83472104  1.184554647e-08  -1.184554647e-08
29.16527896  1.09371103e-08  -1.09371103e-08
29.47792495  1.015049653e-08  -1.015049653e-08
29.73877387  9.543426105e-09  -9.543426105e-09
29.91953391  9.147070009e-09  -9.147070009e-09
30  8.976706048e-09  -8.976706048e-09
30.08046609  8.809958745e-09  -8.809958745e-09
30.26122613  8.44812228e-09  -8.44812228e-09
30.52207505  7.955500146e-09  -7.955500146e-09
30.83472104  7.407740371e-09  -7.407740371e-09
31.16527896  6.874938567e-09  -6.874938567e-09
31.47792495  6.410963536e-09  -6.410963536e-09
31.73877387  6.051109007e-09  -6.051109007e-09
31.91953391  5.815274415e-09  -5.815274415e-09
32  5.713683197e-09  -5.713683197e-09
32.08046609  5.614115229e-09  -5.614115229e-09
32.26122613  5.397590465e-09  -5.397590465e-09
32.52207505  5.101739629e-09  -5.101739629e-09
32.83472104  4.771255962e-09  -4.771255962e-09
33.16527896  4.448160582e-09  -4.448160582e-09
33.47792495  4.165396272e-09  -4.165396272e-09
33.73877387  3.945126919e-09  -3.945126919e-09
33.91953391  3.800291564e-09  -3.800291564e-09
34  3.737779094e-09  -3.737779094e-09
34.08046609  3.676439057e-09  -3.676439057e-09
34.26122613  3.542792712e-09  -3.542792712e-09
34.52207505  3.359601816e-09  -3.359601816e-09
34.83472104  3.154130778e-09  -3.154130778e-09
35.16527896  2.952348279e-09  -2.952348279e-09
35.47792495  2.774971858e-09  -2.774971858e-09
35.73877387  2.636261691e-09  -2.636261691e-09
35.91953391  2.54478567e-09  -2.54478567e-09
36  2.50523548e-09  -2.50523548e-09
36.08046609  2.466386218e-09  -2.466386218e-09
36.26122613  2.38159913e-09  -2.38159913e-09
36.52207505  2.265050806e-09  -2.265050806e-09
36.83472104  2.133852342e-09  -2.133852342e-09
37.16527896  2.004491791e-09  -2.004491791e-09
37.47792495  1.890328579e-09  -1.890328579e-09
37.73877387  1.800742274e-09  -1.800742274e-09
37.91953391  1.74150661e-09  -1.74150661e-09
38  1.715856185e-09  -1.715856185e-09
38.08046609  1.690636626e-09  -1.690636626e-09
38.26122613  1.635512533e-09  -1.635512533e-09
38.52207505  1.559546577e-09  -1.559546577e-09
38.83472104  1.473753101e-09  -1.473753101e-09
39.16527896  1.388856872e-09  -1.388856871e-09
39.47792495  1.313668667e-09  -1.313668667e-09
39.73877387  1.254483118e-09  -1.254483118e-09
39.91953391  1.215256151e-09  -1.215256151e-09
40  1.19824637e-09  -1.19824637e-09
40.08046609  1.181508141e-09  -1.181508141e-09
40.26122613  1.144872392e-09  -1.144872392e-09
40.52207505  1.094269578e-09  -1.094269578e-09
40.83472104  1.036952611e-09  -1.036952611e-09
41.16527896  9.800508777e-10  -9.800508777e-10
41.47792495  9.294946858e-10  -9.294946858e-10
41.73877387  8.89586642e-10  -8.89586642e-10
41.91953391  8.630797854e-10  -8.630797854e-10
42  8.515713241e-10  -8.515713241e-10
42.08046609  8.402379072e-10  -8.402379072e-10
42.26122613  8.154013178e-10  -8.154013178e-10
42.52207505  7.810249607e-10  -7.810249607e-10
42.83472104  7.41983864e-10  -7.41983864e-10
43.16527896  7.031114947e-10  -7.031114947e-10
43.47792495  6.684738172e-10  -6.684738172e-10
43.73877387  6.410617011e-10  -6.410617011e-10
43.91953391  6.228192159e-10  -6.228192159e-10
44  6.148898524e-10  -6.148898524e-10
44.08046609  6.07075653e-10  -6.07075653e-10
44.26122613  5.899320299e-10  -5.899320299e-10
44.52207505  5.661588228e-10  -5.661588228e-10
44.83472104  5.390943219e-10  -5.390943219e-10
45.16527896  5.12074539e-10  -5.12074539e-10
45.47792495  4.879345565e-10  -4.879345565e-10
45.73877387  4.687857852e-10  -4.687857852e-10
45.91953391  4.56019866e-10  -4.56019866e-10
46  4.504651934e-10  -4.504651934e-10
46.08046609  4.449877124e-10  -4.449877124e-10
46.26122613  4.329583159e-10  -4.329583159e-10
46.52207505  4.162483436e-10  -4.162483436e-10
46.83472104  3.97182858e-10  -3.97182858e-10
47.16527896  3.781022045e-10  -3.781022045e-10
47.47792495  3.610139252e-10  -3.610139252e-10
47.73877387  3.474299384e-10  -3.474299384e-10
47.91953391  3.383591808e-10  -3.383591808e-10
48  3.344085707e-10  -3.344085707e-10
48.08046609  3.305105888e-10  -3.305105888e-10
48.26122613  3.219419727e-10  -3.219419727e-10
48.52207505  3.100205659e-10  -3.100205659e-10
48.83472104  2.963910481e-10  -2.963910481e-10
49.16527896  2.827199842e-10  -2.827199842e-10
49.47792495  2.70449211e-10  -2.70449211e-10
49.73877387  2.606756925e-10  -2.606756925e-10
49.91953391  2.541396392e-10  -2.541396392e-10
50  2.512904771e-10  -2.512904771e-10
50.08046609  2.484777617e-10  -2.484777617e-10
50.26122613  2.422894519e-10  -2.422894519e-10
50.52207505  2.336672265e-10  -2.336672265e-10
50.83472104  2.237911709e-10  -2.237911709e-10
51.16527896  2.138644688e-10  -2.138644688e-10
51.47792495  2.049362734e-10  -2.049362734e-10
51.73877387  1.978122282e-10  -1.978122282e-10
51.91953391  1.930414477e-10  -1.930414477e-10
52  1.909601099e-10  -1.909601099e-10
52.08046609  1.88904379e-10  -1.88904379e-10
52.26122613  1.843779143e-10  -1.843779143e-10
52.52207505  1.780626899e-10  -1.780626899e-10
52.83472104  1.708166223e-10  -1.708166223e-10
53.16527896  1.635194368e-10  -1.635194368e-10
53.47792495  1.569438237e-10  -1.569438237e-10
53.73877387  1.516881971e-10  -1.516881971e-10
53.91953391  1.481641574e-10  -1.481641574e-10
54  1.466255798e-10  -1.466255798e-10
54.08046609  1.451052347e-10  -1.451052347e-10
54.26122613  1.417551476e-10  -1.417551476e-10
54.52207505  1.370753702e-10  -1.370753702e-10
54.83472104  1.316972153e-10  -1.316972153e-10
55.16527896  1.262714975e-10  -1.262714975e-10
55.47792495  1.213737025e-10  -1.213737025e-10
55.73877387  1.174530191e-10  -1.174530191e-10
55.91953391  1.148209831e-10  -1.148209831e-10
56  1.136710502e-10  -1.136710502e-10
56.08046609  1.125342602e-10  -1.125342602e-10
56.26122613  1.100276182e-10  -1.100276182e-10
56.52207505  1.065220166e-10  -1.065220166e-10
56.83472104  1.024872718e-10  -1.024872718e-10
57.16527896  9.841012228e-11  -9.841012228e-11
57.47792495  9.472366527e-11  -9.472366527e-11
57.73877387  9.176840053e-11  -9.176840053e-11
57.91953391  8.978228474e-11  -8.978228474e-11
58  8.891399139e-11  -8.891399139e-11
58.08046609  8.805528176e-11  -8.805528176e-11
58.26122613  8.616060088e-11  -8.616060088e-11
58.52207505  8.35079926e-11  -8.35079926e-11
58.83472104  8.045076365e-11  -8.045076365e-11
59.16527896  7.735664854e-11  -7.735664854e-11
59.47792495  7.455476427e-11  -7.455476427e-11
59.73877387  7.230559926e-11  -7.230559926e-11
59.91953391  7.07924717e-11  -7.07924717e-11
60  7.013056029e-11  -7.013056029e-11
60.08046609  6.947571246e-11  -6.947571246e-11
60.26122613  6.802997529e-11  -6.802997529e-11
60.52207505  6.60038689e-11  -6.60038689e-11
60.83472104  6.36656848e-11  -6.36656848e-11
61.16527896  6.129588727e-11  -6.129588727e-11
61.47792495  5.914685518e-11  -5.914685518e-11
61.73877387  5.741958647e-11  -5.741958647e-11
61.91953391  5.625644847e-11  -5.625644847e-11
62  5.574735092e-11  -5.574735092e-11
62.08046609  5.524351186e-11  -5.524351186e-11
62.26122613  5.413054219e-11  -5.413054219e-11
62.52207505  5.256932218e-11  -5.256932218e-11
62.83472104  5.076544785e-11  -5.076544785e-11
63.16527896  4.893472275e-11  -4.893472275e-11
63.47792495  4.727233021e-11  -4.727233021e-11
63.73877387  4.593462001e-11  -4.593462001e-11
63.91953391  4.503299845e-11  -4.503299845e-11
64  4.463815577e-11  -4.463815577e-11
64.08046609  4.424726462e-11  -4.424726462e-11
64.26122613  4.338334219e-11  -4.338334219e-11
64.52207505  4.217040572e-11  -4.217040572e-11
64.83472104  4.0767355e-11  -4.0767355e-11
65.16527896  3.9341621e-11  -3.9341621e-11
65.47792495  3.804536077e-11  -3.804536077e-11
65.73877387  3.700111954e-11  -3.700111954e-11
65.91953391  3.629670197e-11  -3.629670197e-11
66  3.598806635e-11  -3.598806635e-11
66.08046609  3.568242637e-11  -3.568242637e-11
66.26122613  3.500658814e-11  -3.500658814e-11
66.52207505  3.405693388e-11  -3.405693388e-11
66.83472104  3.295725887e-11  -3.295725887e-11
67.16527896  3.18384782e-11  -3.18384782e-11
67.47792495  3.082009897e-11  -3.082009897e-11
67.73877387  2.99988594e-11  -2.99988594e-11
67.91953391  2.944443212e-11  -2.944443212e-11
68  2.920139994e-11  -2.920139994e-11
68.08046609  2.896065759e-11  -2.896065759e-11
68.26122613  2.842807591e-11  -2.842807591e-11
68.52207505  2.767913525e-11  -2.767913525e-11
68.83472104  2.681100935e-11  -2.681100935e-11
69.16527896  2.592681275e-11  -2.592681275e-11
69.47792495  2.512107308e-11  -2.512107308e-11
69.73877387  2.447067276e-11  -2.447067276e-11
69.91953391  2.403125154e-11  -2.403125154e-11
70  2.383854702e-11  -2.383854702e-11
70.08046609  2.364760651e-11  -2.364760651e-11
70.26122613  2.322501431e-11  -2.322501431e-11
70.52207505  2.263030897e-11  -2.263030897e-11
70.83472104  2.194030931e-11  -2.194030931e-11
71.16527896  2.123679471e-11  -2.123679471e-11
71.47792495  2.059503376e-11  -2.059503376e-11
71.73877387  2.0076519e-11  -2.0076519e-11
71.91953391  1.972595382e-11  -1.972595382e-11
72  1.957215229e-11  -1.957215229e-11
72.08046609  1.941971972e-11  -1.941971972e-11
72.26122613  1.908221462e-11  -1.908221462e-11
72.52207505  1.860692075e-11  -1.860692075e-11
72.83472104  1.805497256e-11  -1.805497256e-11
73.16527896  1.749165214e-11  -1.749165214e-11
73.47792495  1.697727093e-11  -1.697727093e-11
73.73877387  1.656130969e-11  -1.656130969e-11
73.91953391  1.627989212e-11  -1.627989212e-11
74  1.615637866e-11  -1.615637866e-11
74.08046609  1.603393499e-11  -1.603393499e-11
74.26122613  1.57627233e-11  -1.57627233e-11
74.52207505  1.538053657e-11  -1.538053657e-11
74.83472104  1.493633524e-11  -1.493633524e-11
75.16527896  1.448255366e-11  -1.448255366e-11
75.47792495  1.406780687e-11  -1.406780687e-11
75.73877387  1.373213837e-11  -1.373213837e-11
75.91953391  1.350489864e-11  -1.350489864e-11
76  1.340512646e-11  -1.340512646e-11
76.08046609  1.330619579e-11  -1.330619579e-11
76.26122613  1.308698414e-11  -1.308698414e-11
76.52207505  1.277788259e-11  -1.277788259e-11
76.83472104  1.241833666e-11  -1.241833666e-11
77.16527896  1.205070757e-11  -1.205070757e-11
77.47792495  1.171440396e-11  -1.171440396e-11
77.73877387  1.144200824e-11  -1.144200824e-11
77.91953391  1.125749179e-11  -1.125749179e-11
78  1.117644905e-11  -1.117644905e-11
78.08046609  1.109607239e-11  -1.109607239e-11
78.26122613  1.091791042e-11  -1.091791042e-11
78.52207505  1.066654294e-11  -1.066654294e-11
78.83472104  1.037393004e-11  -1.037393004e-11
79.16527896  1.007448457e-11  -1.007448457e-11
79.47792495  9.80032375e-12  -9.80032375e-12
79.73877387  9.578096061e-12  -9.578096061e-12
79.91953391  9.427476628e-12  -9.427476628e-12
80  9.361299766e-12  -9.361299766e-12
80.08046609  9.295653267e-12  -9.295653267e-12
80.26122613  9.150093475e-12  -9.150093475e-12
80.52207505  8.944608871e-12  -8.944608871e-12
80.83472104  8.705234085e-12  -8.705234085e-12
81.16527896  8.460072055e-12  -8.460072055e-12
81.47792495  8.235431159e-12  -8.235431159e-12
81.73877387  8.053213822e-12  -8.053213822e-12
81.91953391  7.929645141e-12  -7.929645141e-12
82  7.875336048e-12  -7.875336048e-12
82.08046609  7.821451632e-12  -7.821451632e-12
82.26122613  7.701934333e-12  -7.701934333e-12
82.52207505  7.533123401e-12  -7.533123401e-12
82.83472104  7.336335147e-12  -7.336335147e-12
83.16527896  7.134634362e-12  -7.134634362e-12
83.47792495  6.949675808e-12  -6.949675808e-12
83.73877387  6.799545415e-12  -6.799545415e-12
83.91953391  6.697683477e-12  -6.697683477e-12
84  6.652900969e-12  -6.652900969e-12
84.08046609  6.608460338e-12  -6.608460338e-12
84.26122613  6.509859864e-12  -6.509859864e-12
84.52207505  6.370521812e-12  -6.370521812e-12
84.83472104  6.20798428e-12  -6.20798428e-12
85.16527896  6.041267252e-12  -6.041267252e-12
85.47792495  5.88827746e-12  -5.88827746e-12
85.73877387  5.764016059e-12  -5.764016059e-12
85.91953391  5.679664393e-12  -5.679664393e-12
86  5.642569313e-12  -5.642569313e-12
86.08046609  5.605750861e-12  -5.605750861e-12
86.26122613  5.524038189e-12  -5.524038189e-12
86.52207505  5.408509235e-12  -5.408509235e-12
86.83472104  5.27366049e-12  -5.27366049e-12
87.16527896  5.135247628e-12  -5.135247628e-12
87.47792495  5.008143366e-12  -5.008143366e-12
87.73877387  4.904843275e-12  -4.904843275e-12
87.91953391  4.834687655e-12  -4.834687655e-12
88  4.803826972e-12  -4.803826972e-12
88.08046609  4.773191214e-12  -4.773191214e-12
88.26122613  4.705181344e-12  -4.705181344e-12
88.52207505  4.608981463e-12  -4.608981463e-12
88.83472104  4.496626969e-12  -4.496626969e-12
89.16527896  4.381225967e-12  -4.381225967e-12
89.47792495  4.275183236e-12  -4.275183236e-12
89.73877387  4.188949668e-12  -4.188949668e-12
89.91953391  4.13035834e-12  -4.13035834e-12
90  4.104577832e-12  -4.104577832e-12
90.08046609  4.078981062e-12  -4.078981062e-12
90.26122613  4.022142561e-12  -4.022142561e-12
90.52207505  3.941708971e-12  -3.941708971e-12
90.83472104  3.847714622e-12  -3.847714622e-12
91.16527896  3.751110043e-12  -3.751110043e-12
91.47792495  3.662283232e-12  -3.662283232e-12
91.73877387  3.590009042e-12  -3.590009042e-12
91.91953391  3.540881286e-12  -3.540881286e-12
92  3.519259324e-12  -3.519259324e-12
92.08046609  3.497788123e-12  -3.497788123e-12
92.26122613  3.450098603e-12  -3.450098603e-12
92.52207505  3.382583379e-12  -3.382583379e-12
92.83472104  3.303642193e-12  -3.303642193e-12
93.16527896  3.222459298e-12  -3.222459298e-12
93.47792495  3.147767294e-12  -3.147767294e-12
93.73877387  3.086961278e-12  -3.086961278e-12
93.91953391  3.0456119e-12  -3.0456119e-12
94  3.027408919e-12  -3.027408919e-12
94.08046609  3.00933017e-12  -3.00933017e-12
94.26122613  2.969165929e-12  -2.969165929e-12
94.52207505  2.912281364e-12  -2.912281364e-12
94.83472104  2.845735056e-12  -2.845735056e-12
95.16527896  2.777259023e-12  -2.777259023e-12
95.47792495  2.714221328e-12  -2.714221328e-12
95.73877387  2.662876551e-12  -2.662876551e-12
95.91953391  2.627947246e-12  -2.627947246e-12
96  2.612566959e-12  -2.612566959e-12
96.08046609  2.597289459e-12  -2.597289459e-12
96.26122613  2.56334072e-12  -2.56334072e-12
96.52207505  2.51524047e-12  -2.51524047e-12
96.83472104  2.458942202e-12  -2.458942202e-12
97.16527896  2.400978927e-12  -2.400978927e-12
