#L=2 M=1
#R     Re(V)   Im(V) 

0.08046609183  -3.200276741e-07  3.200276758e-07
0.2612261349  -3.038113271e-06  3.038113272e-06
0.5220750502  -7.704872026e-06  7.704872026e-06
0.8347210423  3.903521639e-06  -3.903521637e-06
1.165278958  7.972674577e-05  -7.972674577e-05
1.47792495  0.0002743674464  -0.0002743674464
1.738773865  0.0005866511912  -0.0005866511912
1.919533908  0.0009148057243  -0.0009148057243
2  0.001096906005  -0.001096906005
2.080466092  0.001304084813  -0.001304084813
2.261226135  0.001872159505  -0.001872159505
2.52207505  0.002986943641  -0.002986943641
2.834721042  0.004889639506  -0.004889639506
3.165278958  0.007733762182  -0.007733762182
3.47792495  0.01136930953  -0.01136930953
3.738773865  0.01520187491  -0.01520187491
3.919533908  0.01831288657  -0.01831288657
4  0.01981941171  -0.01981941171
4.080466092  0.01741061735  -0.01741061735
4.261226135  0.01276814738  -0.01276814738
4.52207505  0.00762486305  -0.00762486305
4.834721042  0.003301945399  -0.003301945399
5.165278958  0.0002938566533  -0.0002938566533
5.47792495  -0.00152271943  0.00152271943
5.738773865  -0.002500361705  0.002500361705
5.919533908  -0.002965662255  0.002965662255
6  -0.003127716267  0.003127716267
6.080466092  -0.003265671715  0.003265671715
6.261226135  -0.003499274488  0.003499274488
6.52207505  -0.003686756385  0.003686756385
6.834721042  -0.003743724531  0.003743724531
7.165278958  -0.003673153235  0.003673153235
7.47792495  -0.003530474722  0.003530474722
7.738773865  -0.003378237878  0.003378237878
7.919533908  -0.003262401838  0.003262401838
8  -0.003209136473  0.003209136473
8.080466092  -0.003155160171  0.003155160171
8.261226135  -0.003032342938  0.003032342938
8.52207505  -0.00285440957  0.00285440957
8.834721042  -0.002645251752  0.002645251752
9.165278958  -0.002433819464  0.002433819464
9.47792495  -0.002245820911  0.002245820911
9.738773865  -0.002098854351  0.002098854351
9.919533908  -0.002002450147  0.002002450147
10  -0.001960970258  0.001960970258
10.08046609  -0.001920369373  0.001920369373
10.26122613  -0.001832335272  0.001832335272
10.52207505  -0.001712862534  0.001712862534
10.83472104  -0.001580943177  0.001580943177
11.16527896  -0.001453997055  0.001453997055
11.47792495  -0.00134486904  0.00134486904
11.73877387  -0.001261304694  0.001261304694
11.91953391  -0.001207104897  0.001207104897
12  -0.001183903306  0.001183903306
12.08046609  -0.001161252124  0.001161252124
12.26122613  -0.001112304744  0.001112304744
12.52207505  -0.001046140933  0.001046140933
12.83472104  -0.0009732566096  0.0009732566096
13.16527896  -0.000903094271  0.000903094271
13.47792495  -0.0008426077354  0.0008426077354
13.73877387  -0.000796097056  0.000796097056
13.91953391  -0.0007658083158  0.0007658083158
14  -0.0007528078325  0.0007528078325
14.08046609  -0.0007400937598  0.0007400937598
14.26122613  -0.0007125389241  0.0007125389241
14.52207505  -0.0006750952477  0.0006750952477
14.83472104  -0.0006335452392  0.0006335452392
15.16527896  -0.0005931981455  0.0005931981455
15.47792495  -0.0005580998131  0.0005580998131
15.73877387  -0.0005308882881  0.0005308882881
15.91953391  -0.0005130538298  0.0005130538298
16  -0.0005053698315  0.0005053698315
16.08046609  -0.0004978375928  0.0004978375928
16.26122613  -0.0004814516806  0.0004814516806
16.52207505  -0.0004590434994  0.0004590434994
16.83472104  -0.0004339734474  0.0004339734474
17.16527896  -0.0004094071841  0.0004094071841
17.47792495  -0.0003878449716  0.0003878449716
17.73877387  -0.0003709966397  0.0003709966397
17.91953391  -0.0003598886409  0.0003598886409
18  -0.0003550861615  0.0003550861615
18.08046609  -0.0003503686174  0.0003503686174
18.26122613  -0.0003400712489  0.0003400712489
18.52207505  -0.0003259099377  0.0003259099377
18.83472104  -0.0003099526645  0.0003099526645
19.16527896  -0.0002941932581  0.0002941932581
19.47792495  -0.0002802553051  0.0002802553051
19.73877387  -0.0002692922486  0.0002692922486
19.91953391  -0.0002620283399  0.0002620283399
20  -0.0002588787236  0.0002588787236
20.08046609  -0.0002557793651  0.0002557793651
20.26122613  -0.0002489950773  0.0002489950773
20.52207505  -0.0002396212824  0.0002396212824
20.83472104  -0.0002289956999  0.0002289956999
21.16527896  -0.000218433562  0.000218433562
21.47792495  -0.0002090331127  0.0002090331127
21.73877387  -0.0002015985319  0.0002015985319
21.91953391  -0.0001966522013  0.0001966522013
22  -0.0001945023343  0.0001945023343
22.08046609  -0.0001923836882  0.0001923836882
22.26122613  -0.0001877352843  0.0001877352843
22.52207505  -0.0001812876313  0.0001812876313
22.83472104  -0.0001739428023  0.0001739428023
23.16527896  -0.0001666023654  0.0001666023654
23.47792495  -0.000160034921  0.000160034921
23.73877387  -0.0001548171684  0.0001548171684
23.91953391  -0.0001513337791  0.0001513337791
24  -0.0001498167284  0.0001498167284
24.08046609  -0.0001483198867  0.0001483198867
24.26122613  -0.0001450293323  0.0001450293323
24.52207505  -0.0001404502362  0.0001404502362
24.83472104  -0.0001352123326  0.0001352123326
25.16527896  -0.0001299537891  0.0001299537891
25.47792495  -0.0001252281755  0.0001252281755
25.73877387  -0.0001214592699  0.0001214592699
25.91953391  -0.0001189358208  0.0001189358208
26  -0.0001178349702  0.0001178349702
26.08046609  -0.0001167476635  0.0001167476635
26.26122613  -0.0001143534445  0.0001143534445
26.52207505  -0.0001110124678  0.0001110124678
26.83472104  -0.0001071773483  0.0001071773483
27.16527896  -0.0001033122358  0.0001033122358
27.47792495  -9.982572487e-05  9.982572487e-05
27.73877387  -9.703591238e-05  9.703591238e-05
27.91953391  -9.516336353e-05  9.516336353e-05
28  -9.434528087e-05  9.434528087e-05
28.08046609  -9.353654839e-05  9.353654839e-05
28.26122613  -9.175321209e-05  9.175321209e-05
28.52207505  -8.925877527e-05  8.925877527e-05
28.83472104  -8.63867264e-05  8.63867264e-05
29.16527896  -8.34825827e-05  8.34825827e-05
29.47792495  -8.085438063e-05  8.085438063e-05
29.73877387  -7.874538413e-05  7.874538413e-05
29.91953391  -7.732675945e-05  7.732675945e-05
30  -7.670620868e-05  7.670620868e-05
30.08046609  -7.609228011e-05  7.609228011e-05
30.26122613  -7.473683794e-05  7.473683794e-05
30.52207505  -7.283701085e-05  7.283701085e-05
30.83472104  -7.064382582e-05  7.064382582e-05
31.16527896  -6.841970965e-05  6.841970965e-05
31.47792495  -6.640121038e-05  6.640121038e-05
31.73877387  -6.477744997e-05  6.477744997e-05
31.91953391  -6.368316794e-05  6.368316794e-05
32  -6.320396848e-05  6.320396848e-05
32.08046609  -6.272956479e-05  6.272956479e-05
32.26122613  -6.168103816e-05  6.168103816e-05
32.52207505  -6.020874015e-05  6.020874015e-05
32.83472104  -5.850517598e-05  5.850517598e-05
33.16527896  -5.677319287e-05  5.677319287e-05
33.47792495  -5.519740855e-05  5.519740855e-05
33.73877387  -5.392701687e-05  5.392701687e-05
33.91953391  -5.306945836e-05  5.306945836e-05
34  -5.269355892e-05  5.269355892e-05
34.08046609  -5.23212012e-05  5.23212012e-05
34.26122613  -5.149743272e-05  5.149743272e-05
34.52207505  -5.033888663e-05  5.033888663e-05
34.83472104  -4.89956216e-05  4.89956216e-05
35.16527896  -4.762687452e-05  4.762687452e-05
35.47792495  -4.637881531e-05  4.637881531e-05
35.73877387  -4.537068512e-05  4.537068512e-05
35.91953391  -4.46891614e-05  4.46891614e-05
36  -4.439016718e-05  4.439016718e-05
36.08046609  -4.409383427e-05  4.409383427e-05
36.26122613  -4.343770058e-05  4.343770058e-05
36.52207505  -4.251360658e-05  4.251360658e-05
36.83472104  -4.144022716e-05  4.144022716e-05
37.16527896  -4.034429142e-05  4.034429142e-05
37.47792495  -3.934301799e-05  3.934301799e-05
37.73877387  -3.853283169e-05  3.853283169e-05
37.91953391  -3.798440356e-05  3.798440356e-05
38  -3.774361496e-05  3.774361496e-05
38.08046609  -3.750485726e-05  3.750485726e-05
38.26122613  -3.697580455e-05  3.697580455e-05
38.52207505  -3.622974388e-05  3.622974388e-05
38.83472104  -3.536174706e-05  3.536174706e-05
39.16527896  -3.447391531e-05  3.447391531e-05
39.47792495  -3.366133467e-05  3.366133467e-05
39.73877387  -3.300280812e-05  3.300280812e-05
39.91953391  -3.255651406e-05  3.255651406e-05
40  -3.236043188e-05  3.236043188e-05
40.08046609  -3.216592116e-05  3.216592116e-05
40.26122613  -3.173461925e-05  3.173461925e-05
40.52207505  -3.112570903e-05  3.112570903e-05
40.83472104  -3.041623841e-05  3.041623841e-05
41.16527896  -2.96893777e-05  2.96893777e-05
41.47792495  -2.902306127e-05  2.902306127e-05
41.73877387  -2.848231087e-05  2.848231087e-05
41.91953391  -2.811544407e-05  2.811544407e-05
42  -2.795415776e-05  2.795415776e-05
42.08046609  -2.779410273e-05  2.779410273e-05
42.26122613  -2.743898254e-05  2.743898254e-05
42.52207505  -2.693710592e-05  2.693710592e-05
42.83472104  -2.635156751e-05  2.635156751e-05
43.16527896  -2.575079416e-05  2.575079416e-05
43.47792495  -2.519926405e-05  2.519926405e-05
43.73877387  -2.475109803e-05  2.475109803e-05
43.91953391  -2.44467491e-05  2.44467491e-05
44  -2.431287143e-05  2.431287143e-05
44.08046609  -2.417996952e-05  2.417996952e-05
44.26122613  -2.388492934e-05  2.388492934e-05
44.52207505  -2.346756832e-05  2.346756832e-05
44.83472104  -2.298004459e-05  2.298004459e-05
45.16527896  -2.247916588e-05  2.247916588e-05
45.47792495  -2.201873482e-05  2.201873482e-05
45.73877387  -2.164415964e-05  2.164415964e-05
45.91953391  -2.13895609e-05  2.13895609e-05
46  -2.127750925e-05  2.127750925e-05
46.08046609  -2.116623889e-05  2.116623889e-05
46.26122613  -2.091909368e-05  2.091909368e-05
46.52207505  -2.056918339e-05  2.056918339e-05
46.83472104  -2.01599973e-05  2.01599973e-05
47.16527896  -1.973908698e-05  1.973908698e-05
47.47792495  -1.935169873e-05  1.935169873e-05
47.73877387  -1.903621066e-05  1.903621066e-05
47.91953391  -1.882159947e-05  1.882159947e-05
48  -1.872710178e-05  1.872710178e-05
48.08046609  -1.863323562e-05  1.863323562e-05
48.26122613  -1.842464923e-05  1.842464923e-05
48.52207505  -1.812909761e-05  1.812909761e-05
48.83472104  -1.778312778e-05  1.778312778e-05
49.16527896  -1.742684466e-05  1.742684466e-05
49.47792495  -1.709857235e-05  1.709857235e-05
49.73877387  -1.683096659e-05  1.683096659e-05
49.91953391  -1.664879162e-05  1.664879162e-05
50  -1.656854112e-05  1.656854112e-05
50.08046609  -1.648880555e-05  1.648880555e-05
50.26122613  -1.631154301e-05  1.631154301e-05
50.52207505  -1.606019241e-05  1.606019241e-05
50.83472104  -1.576568877e-05  1.576568877e-05
51.16527896  -1.546209168e-05  1.546209168e-05
51.47792495  -1.518207686e-05  1.518207686e-05
51.73877387  -1.495360436e-05  1.495360436e-05
51.91953391  -1.479796268e-05  1.479796268e-05
52  -1.472937272e-05  1.472937272e-05
52.08046609  -1.466120601e-05  1.466120601e-05
52.26122613  -1.450960196e-05  1.450960196e-05
52.52207505  -1.429448967e-05  1.429448967e-05
52.83472104  -1.404222821e-05  1.404222821e-05
53.16527896  -1.378192849e-05  1.378192849e-05
53.47792495  -1.354162056e-05  1.354162056e-05
53.73877387  -1.334538243e-05  1.334538243e-05
53.91953391  -1.321161455e-05  1.321161455e-05
54  -1.315264213e-05  1.315264213e-05
54.08046609  -1.309402016e-05  1.309402016e-05
54.26122613  -1.296359556e-05  1.296359556e-05
54.52207505  -1.277841988e-05  1.277841988e-05
54.83472104  -1.256109117e-05  1.256109117e-05
55.16527896  -1.233663817e-05  1.233663817e-05
55.47792495  -1.212924188e-05  1.212924188e-05
55.73877387  -1.195974859e-05  1.195974859e-05
55.91953391  -1.184414333e-05  1.184414333e-05
56  -1.17931603e-05  1.17931603e-05
56.08046609  -1.174246947e-05  1.174246947e-05
56.26122613  -1.162965161e-05  1.162965161e-05
56.52207505  -1.146938129e-05  1.146938129e-05
56.83472104  -1.128114249e-05  1.128114249e-05
57.16527896  -1.108657251e-05  1.108657251e-05
57.47792495  -1.090664155e-05  1.090664155e-05
57.73877387  -1.075948816e-05  1.075948816e-05
57.91953391  -1.065906494e-05  1.065906494e-05
58  -1.061476301e-05  1.061476301e-05
58.08046609  -1.057070625e-05  1.057070625e-05
58.26122613  -1.047262185e-05  1.047262185e-05
58.52207505  -1.033320708e-05  1.033320708e-05
58.83472104  -1.016934982e-05  1.016934982e-05
59.16527896  -9.999851103e-06  9.999851103e-06
59.47792495  -9.842985771e-06  9.842985771e-06
59.73877387  -9.714609984e-06  9.714609984e-06
59.91953391  -9.626956369e-06  9.626956369e-06
60  -9.588276111e-06  9.588276111e-06
60.08046609  -9.549802795e-06  9.549802795e-06
60.26122613  -9.464123327e-06  9.464123327e-06
60.52207505  -9.342279445e-06  9.342279445e-06
60.83472104  -9.198980964e-06  9.198980964e-06
61.16527896  -9.050642292e-06  9.050642292e-06
61.47792495  -8.913262187e-06  8.913262187e-06
61.73877387  -8.800762124e-06  8.800762124e-06
61.91953391  -8.72391142e-06  8.72391142e-06
62  -8.689988755e-06  8.689988755e-06
62.08046609  -8.65624174e-06  8.65624174e-06
62.26122613  -8.581066656e-06  8.581066656e-06
62.52207505  -8.474110694e-06  8.474110694e-06
62.83472104  -8.34824544e-06  8.34824544e-06
63.16527896  -8.217865474e-06  8.217865474e-06
63.47792495  -8.097036899e-06  8.097036899e-06
63.73877387  -7.998032577e-06  7.998032577e-06
63.91953391  -7.930370624e-06  7.930370624e-06
64  -7.900496063e-06  7.900496063e-06
64.08046609  -7.870771369e-06  7.870771369e-06
64.26122613  -7.804539077e-06  7.804539077e-06
64.52207505  -7.710265002e-06  7.710265002e-06
64.83472104  -7.599260692e-06  7.599260692e-06
65.16527896  -7.484202106e-06  7.484202106e-06
65.47792495  -7.377505799e-06  7.377505799e-06
65.73877387  -7.290032835e-06  7.290032835e-06
65.91953391  -7.230226442e-06  7.230226442e-06
66  -7.203813758e-06  7.203813758e-06
66.08046609  -7.177529568e-06  7.177529568e-06
66.26122613  -7.118948953e-06  7.118948953e-06
66.52207505  -7.035531621e-06  7.035531621e-06
66.83472104  -6.937258278e-06  6.937258278e-06
67.16527896  -6.835335161e-06  6.835335161e-06
67.47792495  -6.740764061e-06  6.740764061e-06
67.73877387  -6.663191411e-06  6.663191411e-06
67.91953391  -6.610132913e-06  6.610132913e-06
68  -6.586694866e-06  6.586694866e-06
68.08046609  -6.563367496e-06  6.563367496e-06
68.26122613  -6.511364809e-06  6.511364809e-06
68.52207505  -6.437285402e-06  6.437285402e-06
68.83472104  -6.349969112e-06  6.349969112e-06
69.16527896  -6.259359339e-06  6.259359339e-06
69.47792495  -6.175238924e-06  6.175238924e-06
69.73877387  -6.106204722e-06  6.106204722e-06
69.91953391  -6.058968704e-06  6.058968704e-06
70  -6.038098076e-06  6.038098076e-06
70.08046609  -6.017323193e-06  6.017323193e-06
70.26122613  -5.971000529e-06  5.971000529e-06
70.52207505  -5.904988217e-06  5.904988217e-06
70.83472104  -5.82714358e-06  5.82714358e-06
71.16527896  -5.7463201e-06  5.7463201e-06
71.47792495  -5.67124585e-06  5.67124585e-06
71.73877387  -5.609606972e-06  5.609606972e-06
71.91953391  -5.567416221e-06  5.567416221e-06
72  -5.548770898e-06  5.548770898e-06
72.08046609  -5.53020874e-06  5.53020874e-06
72.26122613  -5.488811341e-06  5.488811341e-06
72.52207505  -5.4297973e-06  5.4297973e-06
72.83472104  -5.360174142e-06  5.360174142e-06
73.16527896  -5.287850701e-06  5.287850701e-06
73.47792495  -5.220638642e-06  5.220638642e-06
73.73877387  -5.165430796e-06  5.165430796e-06
73.91953391  -5.127629336e-06  5.127629336e-06
74  -5.110920479e-06  5.110920479e-06
74.08046609  -5.09428414e-06  5.09428414e-06
74.26122613  -5.057174461e-06  5.057174461e-06
74.52207505  -5.004255386e-06  5.004255386e-06
74.83472104  -4.941796423e-06  4.941796423e-06
75.16527896  -4.87688441e-06  4.87688441e-06
75.47792495  -4.816531746e-06  4.816531746e-06
75.73877387  -4.766937664e-06  4.766937664e-06
75.91953391  -4.732969256e-06  4.732969256e-06
76  -4.71795187e-06  4.71795187e-06
76.08046609  -4.702997949e-06  4.702997949e-06
76.26122613  -4.669634964e-06  4.669634964e-06
76.52207505  -4.622043922e-06  4.622043922e-06
76.83472104  -4.565850912e-06  4.565850912e-06
77.16527896  -4.507424816e-06  4.507424816e-06
77.47792495  -4.453078395e-06  4.453078395e-06
77.73877387  -4.408402334e-06  4.408402334e-06
77.91953391  -4.377793225e-06  4.377793225e-06
78  -4.364258585e-06  4.364258585e-06
78.08046609  -4.35077968e-06  4.35077968e-06
78.26122613  -4.320702255e-06  4.320702255e-06
78.52207505  -4.277785256e-06  4.277785256e-06
78.83472104  -4.227091779e-06  4.227091779e-06
79.16527896  -4.174361378e-06  4.174361378e-06
79.47792495  -4.125292275e-06  4.125292275e-06
79.73877387  -4.084939447e-06  4.084939447e-06
79.91953391  -4.057284443e-06  4.057284443e-06
80  -4.045053984e-06  4.045053984e-06
80.08046609  -4.032872634e-06  4.032872634e-06
80.26122613  -4.005686094e-06  4.005686094e-06
80.52207505  -3.966883157e-06  3.966883157e-06
80.83472104  -3.921032583e-06  3.921032583e-06
81.16527896  -3.873320426e-06  3.873320426e-06
81.47792495  -3.828903341e-06  3.828903341e-06
81.73877387  -3.792363227e-06  3.792363227e-06
81.91953391  -3.767314394e-06  3.767314394e-06
82  -3.756234747e-06  3.756234747e-06
82.08046609  -3.745198504e-06  3.745198504e-06
82.26122613  -3.720563724e-06  3.720563724e-06
82.52207505  -3.68539348e-06  3.68539348e-06
82.83472104  -3.643821054e-06  3.643821054e-06
83.16527896  -3.600544122e-06  3.600544122e-06
83.47792495  -3.560240594e-06  3.560240594e-06
83.73877387  -3.527073342e-06  3.527073342e-06
83.91953391  -3.504330783e-06  3.504330783e-06
84  -3.49426972e-06  3.49426972e-06
84.08046609  -3.484247134e-06  3.484247134e-06
84.26122613  -3.461871628e-06  3.461871628e-06
84.52207505  -3.429918741e-06  3.429918741e-06
84.83472104  -3.392136927e-06  3.392136927e-06
85.16527896  -3.352791626e-06  3.352791626e-06
85.47792495  -3.316136285e-06  3.316136285e-06
85.73877387  -3.285961552e-06  3.285961552e-06
85.91953391  -3.265265846e-06  3.265265846e-06
86  -3.256108959e-06  3.256108959e-06
86.08046609  -3.246986279e-06  3.246986279e-06
86.26122613  -3.226616884e-06  3.226616884e-06
86.52207505  -3.197521721e-06  3.197521721e-06
86.83472104  -3.163108161e-06  3.163108161e-06
87.16527896  -3.127257983e-06  3.127257983e-06
87.47792495  -3.09384723e-06  3.09384723e-06
87.73877387  -3.066335e-06  3.066335e-06
87.91953391  -3.047460967e-06  3.047460967e-06
88  -3.039108929e-06  3.039108929e-06
88.08046609  -3.030787383e-06  3.030787383e-06
88.26122613  -3.012204228e-06  3.012204228e-06
88.52207505  -2.985654336e-06  2.985654336e-06
88.83472104  -2.954241905e-06  2.954241905e-06
89.16527896  -2.921507228e-06  2.921507228e-06
89.47792495  -2.890989878e-06  2.890989878e-06
89.73877387  -2.865852861e-06  2.865852861e-06
89.91953391  -2.848604406e-06  2.848604406e-06
90  -2.8409707e-06  2.8409707e-06
90.08046609  -2.833364245e-06  2.833364245e-06
90.26122613  -2.816375752e-06  2.816375752e-06
90.52207505  -2.792098791e-06  2.792098791e-06
90.83472104  -2.763367354e-06  2.763367354e-06
91.16527896  -2.733416976e-06  2.733416976e-06
91.47792495  -2.705486486e-06  2.705486486e-06
91.73877387  -2.682473802e-06  2.682473802e-06
91.91953391  -2.666679623e-06  2.666679623e-06
92  -2.659688656e-06  2.659688656e-06
92.08046609  -2.652722104e-06  2.652722104e-06
92.26122613  -2.637160833e-06  2.637160833e-06
92.52207505  -2.614918694e-06  2.614918694e-06
92.83472104  -2.588588233e-06  2.588588233e-06
93.16527896  -2.561132321e-06  2.561132321e-06
93.47792495  -2.535520308e-06  2.535520308e-06
93.73877387  -2.514412213e-06  2.514412213e-06
93.91953391  -2.499922222e-06  2.499922222e-06
94  -2.493507749e-06  2.493507749e-06
94.08046609  -2.487115202e-06  2.487115202e-06
94.26122613  -2.472834373e-06  2.472834373e-06
94.52207505  -2.452418262e-06  2.452418262e-06
94.83472104  -2.428243136e-06  2.428243136e-06
95.16527896  -2.403027318e-06  2.403027318e-06
95.47792495  -2.379498129e-06  2.379498129e-06
95.73877387  -2.360101601e-06  2.360101601e-06
95.91953391  -2.346783919e-06  2.346783919e-06
96  -2.340887723e-06  2.340887723e-06
96.08046609  -2.335011261e-06  2.335011261e-06
96.26122613  -2.321881842e-06  2.321881842e-06
96.52207505  -2.303108156e-06  2.303108156e-06
96.83472104  -2.280872272e-06  2.280872272e-06
97.16527896  -2.257672679e-06  2.257672679e-06
97.47792495  -2.236018828e-06  2.236018828e-06
