#L=5 M=4
#R     Re(V)   Im(V)

0.08046609183  -5.325025819e-11  -3.609777886e-17
0.2612261349  -1.924650889e-08  8.65992522e-17
0.5220750502  -6.184413009e-07  3.911950412e-17
0.8347210423  -6.564753537e-06  -2.559135568e-17
1.165278958  -3.565293299e-05  2.905316172e-17
1.47792495  -0.0001204414861  -1.11102888e-17
1.738773865  -0.000279235094  9.569599291e-20
1.919533908  -0.0004677581346  2.067905463e-17
2  -0.0005801139207  -2.386642555e-18
2.080466092  -0.0007138241343  6.239881835e-18
2.261226135  -0.001108624445  5.854754571e-18
2.52207505  -0.001983090359  -5.793000645e-19
2.834721042  -0.003717939388  6.409570748e-18
3.165278958  -0.006764856747  -5.28587854e-18
3.47792495  -0.01131385897  -8.152995295e-18
3.738773865  -0.01680426984  -1.333748649e-17
3.919533908  -0.02174726554  -1.580000023e-17
4  -0.02429291802  -1.31749766e-17
4.080466092  -0.02122591961  -1.248809413e-17
4.261226135  -0.01572443416  -1.047315332e-17
4.52207505  -0.01025673619  -1.07774416e-17
4.834721042  -0.006170752832  -5.639794018e-18
5.165278958  -0.003596677169  -3.555188088e-18
5.47792495  -0.002133973325  -1.434123534e-18
5.738773865  -0.001356697683  -8.077033852e-19
5.919533908  -0.0009762680108  -7.989188137e-19
6  -0.0008385412033  -9.606216365e-19
6.080466092  -0.0007171366458  -9.339207386e-19
6.261226135  -0.0004945515249  -7.643989152e-19
6.52207505  -0.0002678500624  -6.947013952e-19
6.834721042  -9.739357425e-05  -2.228072054e-19
7.165278958  6.311689355e-06  -1.497263691e-19
7.47792495  5.978066898e-05  -4.628332516e-20
7.738773865  8.362980235e-05  8.636770161e-20
7.919533908  9.276690664e-05  -1.809167125e-19
8  9.537915382e-05  -5.679922563e-20
8.080466092  9.725260177e-05  -5.399486826e-20
8.261226135  9.924121814e-05  4.888379815e-21
8.52207505  9.811501364e-05  3.447089644e-20
8.834721042  9.289953646e-05  -4.869433764e-20
9.165278958  8.502724625e-05  9.15719162e-20
9.47792495  7.67306289e-05  1.154656011e-19
9.738773865  6.975717994e-05  2.190297331e-20
9.919533908  6.505437957e-05  2.920629382e-20
10  6.301363734e-05  1.315860282e-19
10.08046609  6.101069613e-05  7.844579354e-20
10.26122613  5.666308389e-05  1.016950014e-21
10.52207505  5.079351945e-05  -1.131174914e-19
10.83472104  4.442188823e-05  2.527759237e-20
11.16527896  3.846755407e-05  2.54122859e-21
11.47792495  3.353599991e-05  1.989646341e-20
11.73877387  2.990118212e-05  -5.051619201e-20
11.91953391  2.761771097e-05  4.100201607e-20
12  2.66593211e-05  -1.931399492e-20
12.08046609  2.573517579e-05  9.118927641e-20
12.26122613  2.377845373e-05  -2.395465007e-20
12.52207505  2.122554998e-05  6.860088815e-20
12.83472104  1.854393944e-05  4.707460785e-20
13.16527896  1.610059385e-05  7.520961027e-20
13.47792495  1.410954808e-05  -3.344467113e-20
13.73877387  1.265473315e-05  -4.434069139e-20
13.91953391  1.174419724e-05  3.187354108e-20
14  1.136249474e-05  -1.685265554e-20
14.08046609  1.099456739e-05  -1.469352151e-20
14.26122613  1.021560443e-05  1.163830588e-19
14.52207505  9.198228066e-06  2.034804644e-20
14.83472104  8.126033877e-06  5.555279919e-20
15.16527896  7.143408973e-06  9.045590764e-20
15.47792495  6.336566374e-06  -1.570351182e-20
15.73877387  5.742293545e-06  -1.089449066e-20
15.91953391  5.367820405e-06  -1.547106516e-20
16  5.210173467e-06  1.146235325e-20
16.08046609  5.057810927e-06  -1.801609639e-20
16.26122613  4.733813999e-06  4.617719729e-21
16.52207505  4.3073922e-06  -1.536113928e-20
16.83472104  3.853316136e-06  -4.443619264e-20
17.16527896  3.432143852e-06  1.100275016e-20
17.47792495  3.082032438e-06  3.559677903e-20
17.73877387  2.821273519e-06  -2.687007496e-20
17.91953391  2.655534939e-06  1.046629795e-20
18  2.585403619e-06  -4.647150529e-21
18.08046609  2.517410495e-06  2.077543742e-20
18.26122613  2.372092662e-06  4.177540727e-20
18.52207505  2.179199222e-06  4.292915511e-21
18.83472104  1.971520116e-06  1.023001571e-20
19.16527896  1.776513019e-06  2.576969692e-20
19.47792495  1.612430013e-06  -3.777109583e-20
19.73877387  1.488911784e-06  9.126523954e-21
19.91953391  1.409763827e-06  3.797127405e-20
20  1.37611319e-06  -4.542222601e-21
20.08046609  1.343394064e-06  -1.11570601e-20
20.26122613  1.273140846e-06  5.671778779e-21
20.52207505  1.179162209e-06  -2.567239029e-20
20.83472104  1.076972735e-06  3.535803851e-20
21.16527896  9.79967669e-07  1.962504591e-20
21.47792495  8.974710255e-07  -7.913931347e-21
21.73877387  8.34788953e-07  -2.590910332e-20
21.91953391  7.94340115e-07  2.474459477e-21
22  7.77072075e-07  2.155350648e-20
22.08046609  7.602401398e-07  -4.560732161e-20
22.26122613  7.239548827e-07  -5.705868122e-20
22.52207505  6.750915392e-07  3.07055685e-20
22.83472104  6.215065049e-07  1.31400495e-20
23.16527896  5.701648645e-07  3.242142681e-21
23.47792495  5.26104051e-07  -6.375189609e-21
23.73877387  4.923603379e-07  2.898384935e-20
23.91953391  4.704550755e-07  -3.515628827e-20
24  4.610708432e-07  2.332980604e-20
24.08046609  4.519042361e-07  -1.156494931e-20
24.26122613  4.320764159e-07  -6.155103531e-21
24.52207505  4.05224142e-07  2.315791577e-20
24.83472104  3.755644008e-07  1.759764496e-20
25.16527896  3.469212484e-07  -2.172538685e-20
25.47792495  3.221498988e-07  -3.297048701e-21
25.73877387  3.030510677e-07  -1.319951255e-20
25.91953391  2.90589676e-07  -2.956352576e-20
26  2.85235361e-07  -1.852510403e-20
26.08046609  2.799957879e-07  1.702606249e-20
26.26122613  2.686296035e-07  1.074376412e-20
26.52207505  2.531624022e-07  -8.731048797e-21
26.83472104  2.359728406e-07  -1.337890761e-20
27.16527896  2.192601882e-07  1.164815875e-20
27.47792495  2.047111016e-07  1.754752099e-20
27.73877387  1.934289896e-07  -5.139515535e-20
27.91953391  1.860356673e-07  -3.767773561e-20
28  1.828508746e-07  1.474806204e-20
28.08046609  1.797295082e-07  -2.019437893e-20
28.26122613  1.729415376e-07  3.127386453e-20
28.52207505  1.636660786e-07  2.992241206e-20
28.83472104  1.533030969e-07  1.006470755e-20
29.16527896  1.43168904e-07  3.589518553e-20
29.47792495  1.342963149e-07  1.544722759e-20
29.73877387  1.273817539e-07  -2.529267356e-20
29.91953391  1.228334495e-07  -4.512148687e-20
30  1.208698738e-07  6.077437219e-21
30.08046609  1.189428211e-07  4.871643202e-20
30.26122613  1.147430762e-07  -8.325974227e-21
30.52207505  1.08983636e-07  -3.965958513e-21
30.83472104  1.025192686e-07  -1.557661414e-20
31.16527896  9.61655548e-08  1.516833159e-20
31.47792495  9.057515532e-08  1.447365616e-20
31.73877387  8.619950978e-08  -1.33666569e-21
31.91953391  8.331178174e-08  -6.715960153e-21
32  8.206269976e-08  -3.83039589e-21
32.08046609  8.083541177e-08  5.804021297e-22
32.26122613  7.815566412e-08  7.730482868e-21
32.52207505  7.446911465e-08  -6.277744765e-21
32.83472104  7.031462965e-08  -5.508836555e-21
33.16527896  6.621307451e-08  7.360220904e-21
33.47792495  6.258849295e-08  -2.560578781e-21
33.73877387  5.974064561e-08  1.134056236e-20
33.91953391  5.785573684e-08  9.452362628e-21
34  5.703903674e-08  9.191839503e-21
34.08046609  5.623575514e-08  -8.848830543e-21
34.26122613  5.44788934e-08  -5.005806913e-21
34.52207505  5.205522547e-08  1.294470646e-20
34.83472104  4.931416278e-08  1.040970763e-20
35.16527896  4.659735714e-08  -4.457326178e-21
35.47792495  4.418719397e-08  -4.830652668e-21
35.73877387  4.228708963e-08  -6.815847667e-21
35.91953391  4.102622258e-08  -2.437844729e-21
36  4.047908463e-08  -7.808276168e-21
36.08046609  3.994044071e-08  1.31824338e-20
36.26122613  3.876062547e-08  -1.287662977e-20
36.52207505  3.712898016e-08  1.523263719e-20
36.83472104  3.52777905e-08  -1.333435645e-21
37.16527896  3.343653817e-08  -1.060268464e-20
37.47792495  3.179746259e-08  -1.045681571e-20
37.73877387  3.050134379e-08  5.108964147e-21
37.91953391  2.963928652e-08  1.718462206e-20
38  2.926470216e-08  1.364327029e-20
38.08046609  2.889562923e-08  4.275187678e-21
38.26122613  2.80861614e-08  4.960957986e-21
38.52207505  2.696420686e-08  3.153066882e-21
38.83472104  2.568766028e-08  -6.191097968e-21
39.16527896  2.441396644e-08  5.003312233e-21
39.47792495  2.327661299e-08  -7.933568206e-22
39.73877387  2.237478707e-08  -2.301746519e-21
39.91953391  2.177373419e-08  -4.801043295e-21
40  2.151224525e-08  6.995199526e-22
40.08046609  2.125441269e-08  1.301457423e-23
40.26122613  2.068824766e-08  1.266789814e-23
40.52207505  1.990194991e-08  1.218642963e-23
40.83472104  1.900501119e-08  1.163721306e-23
41.16527896  1.81075341e-08  1.108766684e-23
41.47792495  1.730388259e-08  1.059557221e-23
41.73877387  1.66650863e-08  1.020442229e-23
41.91953391  1.623854141e-08  9.94323888e-24
42  1.605276862e-08  9.829485854e-24
42.08046609  1.586947061e-08  9.717248192e-24
42.26122613  1.546653858e-08  9.470523483e-24
42.52207505  1.490592701e-08  9.127247902e-24
42.83472104  1.426494267e-08  8.734758193e-24
43.16527896  1.362192162e-08  8.341021352e-24
43.47792495  1.304466219e-08  7.987551902e-24
43.73877387  1.258479261e-08  7.705962992e-24
43.91953391  1.227720063e-08  7.517617227e-24
44  1.214310162e-08  7.435505265e-24
44.08046609  1.201070833e-08  7.354437756e-24
44.26122613  1.1719391e-08  7.17605734e-24
44.52207505  1.131340421e-08  6.927462125e-24
44.83472104  1.084822931e-08  6.642624648e-24
45.16527896  1.038048169e-08  6.356211837e-24
45.47792495  9.959598807e-09  6.0984954e-24
45.73877387  9.623622513e-09  5.892769253e-24
45.91953391  9.398550101e-09  5.754952149e-24
46  9.300337271e-09  5.694814135e-24
46.08046609  9.20331971e-09  5.635408012e-24
46.26122613  8.989651421e-09  5.504573919e-24
46.52207505  8.691429723e-09  5.321965795e-24
46.83472104  8.349069214e-09  5.112330445e-24
47.16527896  8.004076741e-09  4.901083481e-24
47.47792495  7.692992529e-09  4.710599339e-24
47.73877387  7.444201612e-09  4.558258838e-24
47.91953391  7.277298297e-09  4.456060033e-24
48  7.204407407e-09  4.411427236e-24
48.08046609  7.132366869e-09  4.367315128e-24
48.26122613  6.973576659e-09  4.270084167e-24
48.52207505  6.751643412e-09  4.134189247e-24
48.83472104  6.49640992e-09  3.977903807e-24
49.16527896  6.238707761e-09  3.820106745e-24
49.47792495  6.005882389e-09  3.677542322e-24
49.73877387  5.81936018e-09  3.563330409e-24
49.91953391  5.694066801e-09  3.486610341e-24
50  5.639306018e-09  3.453079032e-24
50.08046609  5.585158669e-09  3.419923343e-24
50.26122613  5.465717911e-09  3.346786972e-24
50.52207505  5.298569197e-09  3.244437903e-24
50.83472104  5.10602598e-09  3.126539186e-24
51.16527896  4.911267741e-09  3.00728416e-24
51.47792495  4.734994665e-09  2.89934803e-24
51.73877387  4.593554721e-09  2.812741043e-24
51.91953391  4.498430115e-09  2.754494021e-24
52  4.456825461e-09  2.729018518e-24
52.08046609  4.415669037e-09  2.703817476e-24
52.26122613  4.324820826e-09  2.648188991e-24
52.52207505  4.197536031e-09  2.570249532e-24
52.83472104  4.050691566e-09  2.48033323e-24
53.16527896  3.90190873e-09  2.389230019e-24
53.47792495  3.767024144e-09  2.30663703e-24
53.73877387  3.658635717e-09  2.24026826e-24
53.91953391  3.585658394e-09  2.195582537e-24
54  3.553719369e-09  2.176025525e-24
54.08046609  3.522111764e-09  2.156671449e-24
54.26122613  3.452296348e-09  2.113921836e-24
54.52207505  3.354373596e-09  2.053961444e-24
54.83472104  3.241244984e-09  1.984690147e-24
55.16527896  3.126444881e-09  1.914395358e-24
55.47792495  3.022208593e-09  1.85056904e-24
55.73877387  2.938334422e-09  1.799210922e-24
55.91953391  2.881803941e-09  1.764595986e-24
56  2.857047931e-09  1.749437302e-24
56.08046609  2.832539675e-09  1.734430323e-24
56.26122613  2.778372884e-09  1.701262729e-24
56.52207505  2.702322045e-09  1.654695021e-24
56.83472104  2.61434737e-09  1.600826069e-24
57.16527896  2.524943855e-09  1.546082205e-24
57.47792495  2.443651124e-09  1.496304763e-24
57.73877387  2.378156036e-09  1.456200589e-24
57.91953391  2.33397037e-09  1.429144671e-24
58  2.314609477e-09  1.417289544e-24
58.08046609  2.295435696e-09  1.405548989e-24
58.26122613  2.253035146e-09  1.37958614e-24
58.52207505  2.193448226e-09  1.343099675e-24
58.83472104  2.124435238e-09  1.300841407e-24
59.16527896  2.054206927e-09  1.257838969e-24
59.47792495  1.990264685e-09  1.218685638e-24
59.73877387  1.938687729e-09  1.187103861e-24
59.91953391  1.903860526e-09  1.165778349e-24
60  1.888592175e-09  1.156429181e-24
60.08046609  1.873466489e-09  1.14716737e-24
60.26122613  1.840000344e-09  1.126675266e-24
60.52207505  1.792927918e-09  1.097851718e-24
60.83472104  1.738347361e-09  1.064430766e-24
61.16527896  1.682735759e-09  1.03037848e-24
61.47792495  1.632038824e-09  9.993355607e-25
61.73877387  1.591100776e-09  9.742682363e-25
61.91953391  1.563434232e-09  9.57327364e-25
62  1.551299139e-09  9.498967623e-25
62.08046609  1.539273792e-09  9.425333611e-25
62.26122613  1.512654255e-09  9.262335958e-25
62.52207505  1.475181264e-09  9.032880065e-25
62.83472104  1.431685216e-09  8.766543584e-25
63.16527896  1.387315305e-09  8.49485624e-25
63.47792495  1.346819387e-09  8.246890255e-25
63.73877387  1.314085006e-09  8.04644998e-25
63.91953391  1.291945196e-09  7.910882743e-25
64  1.282229736e-09  7.851392712e-25
64.08046609  1.272599407e-09  7.792423954e-25
64.26122613  1.251271755e-09  7.661829747e-25
64.52207505  1.22122513e-09  7.477847231e-25
64.83472104  1.186314418e-09  7.264080776e-25
65.16527896  1.150662967e-09  7.045778599e-25
65.47792495  1.118088657e-09  6.846318474e-25
65.73877387  1.091732128e-09  6.684931282e-25
65.91953391  1.073892775e-09  6.575696748e-25
66  1.066061048e-09  6.527741248e-25
66.08046609  1.058295874e-09  6.480193272e-25
66.26122613  1.04109145e-09  6.374846562e-25
66.52207505  1.016836111e-09  6.226325444e-25
66.83472104  9.886278717e-10  6.053599793e-25
67.16527896  9.597911725e-10  5.877025936e-25
67.47792495  9.334162879e-10  5.715526346e-25
67.73877387  9.120564119e-10  5.584734828e-25
67.91953391  8.975889691e-10  5.49614729e-25
68  8.912349561e-10  5.457240181e-25
68.08046609  8.849333578e-10  5.41865402e-25
68.26122613  8.709659533e-10  5.333128334e-25
68.52207505  8.512608318e-10  5.212469264e-25
68.83472104  8.283241965e-10  5.072022879e-25
69.16527896  8.048536003e-10  4.928306927e-25
69.47792495  7.833658828e-10  4.796732605e-25
69.73877387  7.659489829e-10  4.690084851e-25
69.91953391  7.541444528e-10  4.617802951e-25
70  7.489579727e-10  4.58604492e-25
70.08046609  7.438130589e-10  4.554541409e-25
70.26122613  7.324050696e-10  4.484687621e-25
70.52207505  7.163003989e-10  4.386074954e-25
70.83472104  6.975391066e-10  4.271195171e-25
71.16527896  6.783233263e-10  4.153532452e-25
71.47792495  6.607148551e-10  4.045711662e-25
71.73877387  6.464307256e-10  3.958246595e-25
71.91953391  6.36743475e-10  3.898929293e-25
72  6.324856983e-10  3.87285793e-25
72.08046609  6.282611007e-10  3.84698973e-25
72.26122613  6.188903766e-10  3.789610593e-25
72.52207505  6.05653675e-10  3.708559172e-25
72.83472104  5.902213581e-10  3.614063485e-25
73.16527896  5.744014026e-10  3.517194195e-25
73.47792495  5.598921643e-10  3.428350734e-25
73.73877387  5.481131446e-10  3.356225041e-25
73.91953391  5.401201373e-10  3.307281987e-25
74  5.366058092e-10  3.285762933e-25
74.08046609  5.331181294e-10  3.264407054e-25
74.26122613  5.253793448e-10  3.217020665e-25
74.52207505  5.144415677e-10  3.150046096e-25
74.83472104  5.016800415e-10  3.071904285e-25
75.16527896  4.885871569e-10  2.991733489e-25
75.47792495  4.76569206e-10  2.918144763e-25
75.73877387  4.668056115e-10  2.858359989e-25
75.91953391  4.601765558e-10  2.817768731e-25
76  4.572609714e-10  2.799915925e-25
76.08046609  4.543669156e-10  2.782194944e-25
76.26122613  4.479432397e-10  2.742861273e-25
76.52207505  4.388592521e-10  2.687237892e-25
76.83472104  4.28253159e-10  2.622294302e-25
77.16527896  4.173631535e-10  2.55561225e-25
77.47792495  4.073594579e-10  2.494357281e-25
77.73877387  3.992266915e-10  2.44455845e-25
77.91953391  3.937019918e-10  2.410729421e-25
78  3.912713711e-10  2.395846161e-25
78.08046609  3.888582394e-10  2.381069991e-25
78.26122613  3.835003826e-10  2.34826258e-25
78.52207505  3.759196962e-10  2.301844263e-25
78.83472104  3.670628879e-10  2.247611954e-25
79.16527896  3.579622339e-10  2.19188652e-25
79.47792495  3.495960923e-10  2.140658677e-25
79.73877387  3.427901773e-10  2.098984467e-25
79.91953391  3.381645154e-10  2.070660457e-25
80  3.36128832e-10  2.058195491e-25
80.08046609  3.341074311e-10  2.04581798e-25
80.26122613  3.296180212e-10  2.018328273e-25
80.52207505  3.232629558e-10  1.979414721e-25
80.83472104  3.158333776e-10  1.933921675e-25
81.16527896  3.081938546e-10  1.887143088e-25
81.47792495  3.011659913e-10  1.844109836e-25
81.73877387  2.954452255e-10  1.809080249e-25
81.91953391  2.915552408e-10  1.785260962e-25
82  2.898428384e-10  1.774775521e-25
82.08046609  2.881421583e-10  1.764361859e-25
82.26122613  2.843640016e-10  1.741227322e-25
82.52207505  2.790132634e-10  1.708463499e-25
82.83472104  2.727540476e-10  1.670136857e-25
83.16527896  2.663136315e-10  1.630700682e-25
83.47792495  2.603849135e-10  1.594397754e-25
83.73877387  2.555560126e-10  1.564829264e-25
83.91953391  2.522709889e-10  1.544714296e-25
84  2.508245097e-10  1.535857165e-25
84.08046609  2.493876974e-10  1.527059227e-25
84.26122613  2.461948938e-10  1.507508943e-25
84.52207505  2.416711366e-10  1.47980892e-25
84.83472104  2.363762681e-10  1.4473872e-25
85.16527896  2.309246259e-10  1.414005519e-25
85.47792495  2.2590293e-10  1.383256501e-25
85.73877387  2.218104882e-10  1.358197522e-25
85.91953391  2.190252647e-10  1.341142947e-25
86  2.177985484e-10  1.333631476e-25
86.08046609  2.165798403e-10  1.326169041e-25
86.26122613  2.138710129e-10  1.309582257e-25
86.52207505  2.100313526e-10  1.286071118e-25
86.83472104  2.055347257e-10  1.258537219e-25
87.16527896  2.009021304e-10  1.230170755e-25
87.47792495  1.966322969e-10  1.204025565e-25
87.73877387  1.931507162e-10  1.182707032e-25
87.91953391  1.907802554e-10  1.168192146e-25
88  1.897359628e-10  1.161797698e-25
88.08046609  1.886983331e-10  1.155444048e-25
88.26122613  1.863914341e-10  1.141318366e-25
88.52207505  1.831201663e-10  1.121287628e-25
88.83472104  1.792871778e-10  1.097817342e-25
89.16527896  1.75335983e-10  1.073623252e-25
89.47792495  1.71692081e-10  1.051310787e-25
89.73877387  1.687193527e-10  1.033108076e-25
89.91953391  1.666945518e-10  1.020709747e-25
90  1.658023309e-10  1.015246469e-25
90.08046609  1.649156765e-10  1.009817277e-25
90.26122613  1.629439783e-10  9.977441074e-26
90.52207505  1.601469543e-10  9.806172749e-26
90.83472104  1.568680029e-10  9.605394883e-26
91.16527896  1.534860456e-10  9.398309722e-26
91.47792495  1.503653814e-10  9.207224153e-26
91.73877387  1.478182651e-10  9.051258259e-26
91.91953391  1.460827067e-10  8.944985959e-26
92  1.453177699e-10  8.898147086e-26
92.08046609  1.44557502e-10  8.851594103e-26
92.26122613  1.428664839e-10  8.748049109e-26
92.52207505  1.404667396e-10  8.60110715e-26
92.83472104  1.376521718e-10  8.42876458e-26
93.16527896  1.347476365e-10  8.250913086e-26
93.47792495  1.320660866e-10  8.086715511e-26
93.73877387  1.298763507e-10  7.952632861e-26
93.91953391  1.283837676e-10  7.861238502e-26
94  1.277257809e-10  7.82094844e-26
94.08046609  1.270717253e-10  7.780899081e-26
94.26122613  1.256166422e-10  7.691800937e-26
94.52207505  1.235509831e-10  7.565315798e-26
94.83472104  1.211271397e-10  7.416898198e-26
95.16527896  1.186245392e-10  7.263658112e-26
95.47792495  1.163128929e-10  7.122110601e-26
95.73877387  1.144243678e-10  7.006471787e-26
95.91953391  1.131366538e-10  6.927622048e-26
96  1.125688657e-10  6.892855056e-26
96.08046609  1.120043993e-10  6.858291455e-26
96.26122613  1.107483725e-10  6.781381997e-26
96.52207505  1.089646903e-10  6.672162963e-26
96.83472104  1.068707983e-10  6.543949054e-26
97.16527896  1.047078102e-10  6.411504232e-26
97.47792495  1.027088897e-10  6.289105653e-26
97.73877387  1.010751441e-10  6.189067588e-26
97.91953391  9.99607861e-11  6.120832837e-26
98  9.946933951e-11  6.090740412e-26
98.08046609  9.898070945e-11  6.06082045e-26
98.26122613  9.789321995e-11  5.994230923e-26
